Date,Time,Open,High,Low,Close,Volume,OpenInt
2017-11-17,15:35:00,86.03,86.24,86.03,86.19,1309,0
2017-11-17,15:40:00,86.14,86.14,85.87,85.87,800,0
2017-11-17,15:45:00,85.81,85.98,85.77,85.82,700,0
2017-11-17,15:50:00,85.75,85.75,85.48,85.73,2900,0
2017-11-17,15:55:00,85.87,85.96,85.87,85.91,1010,0
2017-11-17,16:00:00,85.89,85.98,85.88,85.88,400,0
2017-11-17,16:05:00,85.76,86.01,85.76,86.01,800,0
2017-11-17,16:10:00,86.02,86.1,85.95,86.07,2702,0
2017-11-17,16:15:00,86.08,86.11,86.08,86.11,500,0
2017-11-17,16:20:00,86.06,86.075,85.96,86.0075,1703,0
2017-11-17,16:25:00,86.07,86.07,85.99,86.03,1574,0
2017-11-17,16:30:00,86,86.135,86,86.06,2000,0
2017-11-17,16:35:00,86.02,86.07,86.02,86.07,400,0
2017-11-17,16:40:00,86.07,86.07,85.99,86.03,700,0
2017-11-17,16:45:00,86.03,86.11,86.03,86.06,3054,0
2017-11-17,16:50:00,86.03,86.03,85.9,85.9,1200,0
2017-11-17,17:00:00,85.85,85.985,85.78,85.985,1199,0
2017-11-17,17:05:00,85.88,85.91,85.88,85.89,528,0
2017-11-17,17:10:00,85.88,85.94,85.85,85.94,1915,0
2017-11-17,17:15:00,85.96,86.055,85.96,86.055,1699,0
2017-11-17,17:20:00,86.03,86.03,85.96,85.965,2100,0
2017-11-17,17:25:00,85.965,86.065,85.965,86.035,1900,0
2017-11-17,17:30:00,86.04,86.04,86.04,86.04,100,0
2017-11-17,17:35:00,86.06,86.09,86.06,86.09,501,0
2017-11-17,17:40:00,86.04,86.06,86.01,86.01,2384,0
2017-11-17,17:45:00,86.01,86.08,85.98,86.08,2200,0
2017-11-17,17:50:00,86.13,86.15,86.09,86.15,2316,0
2017-11-17,17:55:00,86.17,86.19,86.065,86.12,2178,0
2017-11-17,18:00:00,86.03,86.03,85.9825,85.9825,600,0
2017-11-17,18:05:00,85.9601,86.01,85.96,86.01,3502,0
2017-11-17,18:10:00,86.02,86.04,86.01,86.03,1311,0
2017-11-17,18:15:00,86.02,86.15,86,86.1,2600,0
2017-11-17,18:25:00,86.1,86.12,86,86,1800,0
2017-11-17,18:30:00,86.03,86.04,85.97,86.04,1079,0
2017-11-17,18:35:00,86.01,86.015,85.94,85.98,2000,0
2017-11-17,18:40:00,85.99,85.99,85.99,85.99,100,0
2017-11-17,18:45:00,86,86.0275,86,86.01,2496,0
2017-11-17,18:50:00,86,86,85.98,85.98,200,0
2017-11-17,18:55:00,86,86,86,86,201,0
2017-11-17,19:00:00,86.02,86.04,86.01,86.02,800,0
2017-11-17,19:05:00,86.01,86.03,85.99,86.02,2062,0
2017-11-17,19:10:00,86.025,86.025,86,86,662,0
2017-11-17,19:15:00,85.98,85.99,85.93,85.93,950,0
2017-11-17,19:20:00,85.93,85.94,85.91,85.91,1300,0
2017-11-17,19:25:00,85.92,85.94,85.91,85.94,554,0
2017-11-17,19:30:00,85.92,85.92,85.9,85.9,600,0
2017-11-17,19:35:00,85.93,85.95,85.91,85.94,2017,0
2017-11-17,19:40:00,85.93,85.93,85.93,85.93,100,0
2017-11-17,19:45:00,85.95,85.95,85.86,85.86,935,0
2017-11-17,19:50:00,85.81,85.84,85.81,85.82,828,0
2017-11-17,19:55:00,85.85,85.87,85.83,85.86,1162,0
2017-11-17,20:00:00,85.87,85.87,85.82,85.82,590,0
2017-11-17,20:05:00,85.82,85.82,85.77,85.77,600,0
2017-11-17,20:10:00,85.76,85.77,85.73,85.755,1239,0
2017-11-17,20:15:00,85.78,85.82,85.76,85.81,1800,0
2017-11-17,20:20:00,85.8,85.8,85.78,85.78,249,0
2017-11-17,20:25:00,85.78,85.82,85.78,85.81,700,0
2017-11-17,20:30:00,85.79,85.83,85.76,85.76,3103,0
2017-11-17,20:35:00,85.74,85.75,85.68,85.68,1200,0
2017-11-17,20:40:00,85.69,85.69,85.64,85.68,805,0
2017-11-17,20:45:00,85.665,85.705,85.66,85.675,1739,0
2017-11-17,20:50:00,85.675,85.71,85.675,85.69,300,0
2017-11-17,20:55:00,85.65,85.69,85.65,85.675,839,0
2017-11-17,21:00:00,85.69,85.72,85.66,85.72,2359,0
2017-11-17,21:05:00,85.72,85.73,85.707,85.715,1520,0
2017-11-17,21:10:00,85.72,85.72,85.7,85.72,459,0
2017-11-17,21:15:00,85.7,85.73,85.69,85.73,1100,0
2017-11-17,21:20:00,85.72,85.72,85.67,85.67,1105,0
2017-11-17,21:25:00,85.68,85.71,85.68,85.71,1500,0
2017-11-17,21:30:00,85.71,85.78,85.68,85.78,3253,0
2017-11-17,21:35:00,85.765,85.8,85.74,85.76,1692,0
2017-11-17,21:40:00,85.78,85.79,85.74,85.79,1281,0
2017-11-17,21:45:00,85.775,85.85,85.775,85.8,4381,0
2017-11-17,21:50:00,85.78,85.78,85.71,85.73,4793,0
2017-11-17,21:55:00,85.73,85.73,85.67,85.69,2721,0
2017-11-17,22:00:00,85.7,85.72,85.64,85.65,21738,0
2017-11-20,15:35:00,85.61,86.14,85.61,86.08,2118,0
2017-11-20,15:40:00,85.96,85.98,85.72,85.9,700,0
2017-11-20,15:45:00,85.86,85.86,85.7,85.7,700,0
2017-11-20,15:50:00,85.63,85.71,85.63,85.71,500,0
2017-11-20,15:55:00,85.655,85.675,85.65,85.65,1000,0
2017-11-20,16:00:00,85.68,86.03,85.665,86.02,1900,0
2017-11-20,16:05:00,86.07,86.07,85.92,86.07,4045,0
2017-11-20,16:10:00,86.06,86.12,86.06,86.065,500,0
2017-11-20,16:15:00,86.12,86.17,86.09,86.14,2500,0
2017-11-20,16:20:00,86.105,86.13,86.07,86.12,500,0
2017-11-20,16:25:00,86.15,86.2,86.12,86.2,700,0
2017-11-20,16:30:00,86.19,86.23,86.17,86.23,932,0
2017-11-20,16:35:00,86.26,86.27,86.245,86.27,1350,0
2017-11-20,16:40:00,86.28,86.38,86.28,86.38,800,0
2017-11-20,16:45:00,86.35,86.38,86.235,86.235,4600,0
2017-11-20,16:50:00,86.2,86.43,86.2,86.38,2774,0
2017-11-20,16:55:00,86.34,86.38,86.24,86.24,1000,0
2017-11-20,17:00:00,86.28,86.28,86.24,86.24,200,0
2017-11-20,17:05:00,86.31,86.405,86.31,86.33,2169,0
2017-11-20,17:10:00,86.19,86.22,86.19,86.22,601,0
2017-11-20,17:15:00,86.27,86.28,86.21,86.21,1335,0
2017-11-20,17:20:00,86.2,86.22,86.07,86.12,1600,0
2017-11-20,17:25:00,86.09,86.14,86.09,86.13,1219,0
2017-11-20,17:30:00,86.07,86.12,86.04,86.07,1794,0
2017-11-20,17:35:00,86.04,86.04,85.88,85.88,2437,0
2017-11-20,17:40:00,85.94,85.97,85.93,85.9665,775,0
2017-11-20,17:45:00,85.96,86.05,85.96,86.05,2300,0
2017-11-20,17:50:00,86,86.02,85.9001,85.94,8863,0
2017-11-20,17:55:00,85.93,85.93,85.73,85.73,1300,0
2017-11-20,18:00:00,85.64,85.68,85.57,85.65,2400,0
2017-11-20,18:05:00,85.67,85.69,85.6,85.65,1312,0
2017-11-20,18:10:00,85.675,85.68,85.52,85.555,2412,0
2017-11-20,18:15:00,85.48,85.57,85.48,85.55,1895,0
2017-11-20,18:20:00,85.51,85.56,85.51,85.54,1000,0
2017-11-20,18:25:00,85.5699,85.5699,85.51,85.52,411,0
2017-11-20,18:30:00,85.51,85.51,85.43,85.47,1600,0
2017-11-20,18:35:00,85.455,85.47,85.43,85.43,1130,0
2017-11-20,18:40:00,85.46,85.51,85.45,85.49,2307,0
2017-11-20,18:45:00,85.49,85.5,85.48,85.48,2511,0
2017-11-20,18:50:00,85.485,85.51,85.47,85.47,400,0
2017-11-20,18:55:00,85.5,85.51,85.49,85.51,1240,0
2017-11-20,19:00:00,85.48,85.51,85.44,85.47,1104,0
2017-11-20,19:05:00,85.51,85.51,85.37,85.385,1653,0
2017-11-20,19:10:00,85.36,85.36,85.34,85.34,500,0
2017-11-20,19:15:00,85.35,85.36,85.345,85.35,1078,0
2017-11-20,19:20:00,85.35,85.39,85.35,85.39,1635,0
2017-11-20,19:25:00,85.4126,85.4126,85.4126,85.4126,171,0
2017-11-20,19:30:00,85.43,85.45,85.43,85.45,403,0
2017-11-20,19:35:00,85.45,85.45,85.41,85.41,1195,0
2017-11-20,19:40:00,85.43,85.43,85.41,85.41,400,0
2017-11-20,19:45:00,85.42,85.42,85.4,85.41,2010,0
2017-11-20,19:50:00,85.42,85.435,85.405,85.435,3238,0
2017-11-20,19:55:00,85.43,85.48,85.43,85.48,1300,0
2017-11-20,20:00:00,85.455,85.455,85.44,85.44,700,0
2017-11-20,20:05:00,85.48,85.53,85.47,85.49,2105,0
2017-11-20,20:10:00,85.51,85.56,85.5,85.56,3053,0
2017-11-20,20:15:00,85.57,85.5737,85.57,85.57,754,0
2017-11-20,20:20:00,85.575,85.575,85.56,85.56,1172,0
2017-11-20,20:25:00,85.55,85.57,85.54,85.555,2246,0
2017-11-20,20:30:00,85.555,85.61,85.555,85.59,500,0
2017-11-20,20:35:00,85.5943,85.5943,85.53,85.54,1792,0
2017-11-20,20:40:00,85.53,85.53,85.52,85.52,465,0
2017-11-20,20:45:00,85.5,85.54,85.5,85.53,900,0
2017-11-20,20:50:00,85.5,85.52,85.49,85.51,1803,0
2017-11-20,20:55:00,85.52,85.54,85.5,85.51,1500,0
2017-11-20,21:00:00,85.535,85.54,85.5,85.5,1126,0
2017-11-20,21:05:00,85.5,85.54,85.5,85.54,1102,0
2017-11-20,21:10:00,85.54,85.54,85.48,85.49,1701,0
2017-11-20,21:15:00,85.45,85.45,85.4,85.4,600,0
2017-11-20,21:20:00,85.39,85.43,85.39,85.43,1800,0
2017-11-20,21:25:00,85.44,85.48,85.44,85.47,4084,0
2017-11-20,21:30:00,85.46,85.465,85.4,85.4,1419,0
2017-11-20,21:35:00,85.39,85.39,85.32,85.34,3271,0
2017-11-20,21:40:00,85.34,85.4,85.34,85.39,10135,0
2017-11-20,21:45:00,85.41,85.41,85.34,85.34,6883,0
2017-11-20,21:50:00,85.35,85.39,85.345,85.37,5254,0
2017-11-20,21:55:00,85.38,85.4,85.36,85.38,5304,0
2017-11-20,22:00:00,85.39,85.49,85.385,85.47,24757,0
2017-11-21,15:35:00,85.92,85.92,85.86,85.86,1777,0
2017-11-21,15:40:00,86.13,86.22,85.54,85.93,3050,0
2017-11-21,15:45:00,85.96,85.96,85.59,85.62,2500,0
2017-11-21,15:50:00,85.72,85.97,85.54,85.54,2350,0
2017-11-21,15:55:00,85.65,85.65,85.41,85.41,1900,0
2017-11-21,16:00:00,85.63,85.63,85.34,85.34,1118,0
2017-11-21,16:05:00,85.32,85.79,85.32,85.79,1000,0
2017-11-21,16:10:00,85.78,85.78,85.76,85.76,200,0
2017-11-21,16:15:00,85.76,85.76,85.7,85.7,1080,0
2017-11-21,16:20:00,85.77,85.86,85.77,85.78,1383,0
2017-11-21,16:25:00,85.77,85.85,85.77,85.83,1197,0
2017-11-21,16:30:00,85.82,85.86,85.77,85.83,1400,0
2017-11-21,16:40:00,85.96,86.05,85.96,86.05,800,0
2017-11-21,16:45:00,86.03,86.08,86.03,86.065,800,0
2017-11-21,16:50:00,86.065,86.19,86.065,86.19,1209,0
2017-11-21,16:55:00,86.2,86.2,86.09,86.13,3238,0
2017-11-21,17:00:00,86.11,86.1825,86.11,86.17,1800,0
2017-11-21,17:05:00,86.17,86.2,86.14,86.18,1980,0
2017-11-21,17:10:00,86.16,86.18,86.15,86.15,500,0
2017-11-21,17:15:00,86.17,86.21,86.17,86.17,811,0
2017-11-21,17:20:00,86.13,86.14,86.075,86.075,500,0
2017-11-21,17:25:00,86.09,86.095,86.08,86.095,1027,0
2017-11-21,17:30:00,86.06,86.06,86.05,86.05,300,0
2017-11-21,17:35:00,86.05,86.07,86.04,86.07,900,0
2017-11-21,17:40:00,86.08,86.16,86.08,86.16,2695,0
2017-11-21,17:45:00,86.2,86.2,86.16,86.175,932,0
2017-11-21,17:50:00,86.19,86.23,86.19,86.22,1000,0
2017-11-21,17:55:00,86.24,86.245,86.22,86.245,1100,0
2017-11-21,18:00:00,86.26,86.27,86.23,86.23,1052,0
2017-11-21,18:05:00,86.25,86.26,86.22,86.26,1100,0
2017-11-21,18:10:00,86.25,86.25,86.25,86.25,100,0
2017-11-21,18:15:00,86.25,86.27,86.23,86.235,3205,0
2017-11-21,18:20:00,86.22,86.22,86.21,86.21,200,0
2017-11-21,18:25:00,86.24,86.27,86.23,86.24,900,0
2017-11-21,18:30:00,86.23,86.28,86.21,86.28,1900,0
2017-11-21,18:35:00,86.265,86.28,86.265,86.28,1000,0
2017-11-21,18:40:00,86.29,86.35,86.29,86.35,3700,0
2017-11-21,18:45:00,86.35,86.36,86.35,86.36,1500,0
2017-11-21,18:50:00,86.38,86.46,86.38,86.44,1798,0
2017-11-21,18:55:00,86.42,86.45,86.39,86.45,1700,0
2017-11-21,19:00:00,86.43,86.45,86.41,86.41,1587,0
2017-11-21,19:05:00,86.385,86.41,86.37,86.41,500,0
2017-11-21,19:10:00,86.42,86.5,86.42,86.49,9100,0
2017-11-21,19:15:00,86.48,86.63,86.45,86.535,19640,0
2017-11-21,19:20:00,86.49,86.52,86.49,86.51,1100,0
2017-11-21,19:25:00,86.45,86.49,86.44,86.45,900,0
2017-11-21,19:30:00,86.39,86.42,86.38,86.38,500,0
2017-11-21,19:35:00,86.38,86.45,86.38,86.43,1000,0
2017-11-21,19:40:00,86.42,86.46,86.42,86.45,800,0
2017-11-21,19:45:00,86.46,86.46,86.44,86.455,1194,0
2017-11-21,19:50:00,86.46,86.48,86.45,86.45,1635,0
2017-11-21,19:55:00,86.45,86.49,86.45,86.49,300,0
2017-11-21,20:00:00,86.48,86.48,86.4,86.41,1100,0
2017-11-21,20:05:00,86.38,86.38,86.38,86.38,200,0
2017-11-21,20:10:00,86.42,86.42,86.39,86.42,700,0
2017-11-21,20:15:00,86.42,86.47,86.42,86.47,1399,0
2017-11-21,20:20:00,86.41,86.45,86.41,86.44,1000,0
2017-11-21,20:25:00,86.46,86.5,86.46,86.475,706,0
2017-11-21,20:30:00,86.46,86.46,86.41,86.45,2233,0
2017-11-21,20:35:00,86.445,86.5,86.445,86.5,700,0
2017-11-21,20:40:00,86.48,86.51,86.48,86.5,1000,0
2017-11-21,20:45:00,86.48,86.54,86.48,86.53,1200,0
2017-11-21,20:50:00,86.5,86.53,86.5,86.51,971,0
2017-11-21,20:55:00,86.4875,86.51,86.48,86.48,1000,0
2017-11-21,21:00:00,86.51,86.59,86.5,86.59,3479,0
2017-11-21,21:05:00,86.6,86.63,86.6,86.63,1300,0
2017-11-21,21:10:00,86.62,86.62,86.59,86.6,1600,0
2017-11-21,21:15:00,86.6,86.61,86.59,86.6,2962,0
2017-11-21,21:20:00,86.59,86.65,86.59,86.6101,2484,0
2017-11-21,21:25:00,86.61,86.63,86.57,86.61,3573,0
2017-11-21,21:30:00,86.62,86.63,86.61,86.62,2255,0
2017-11-21,21:35:00,86.62,86.82,86.62,86.74,5200,0
2017-11-21,21:40:00,86.71,86.71,86.59,86.61,2600,0
2017-11-21,21:45:00,86.61,86.62,86.6,86.62,5074,0
2017-11-21,21:50:00,86.61,86.64,86.6,86.615,5050,0
2017-11-21,21:55:00,86.62,86.64,86.59,86.59,4439,0
2017-11-21,22:00:00,86.58,86.61,86.5,86.54,49455,0
2017-11-22,15:35:00,86.61,86.61,86.61,86.61,861,0
2017-11-22,15:40:00,86.61,86.62,86.425,86.54,500,0
2017-11-22,15:45:00,86.53,86.53,86.25,86.25,917,0
2017-11-22,15:50:00,86.36,86.45,86.36,86.45,900,0
2017-11-22,15:55:00,86.46,86.46,86.28,86.28,1400,0
2017-11-22,16:00:00,86.33,86.33,86.04,86.13,3901,0
2017-11-22,16:05:00,86.18,86.195,86.11,86.13,707,0
2017-11-22,16:10:00,86.07,86.07,85.92,85.92,700,0
2017-11-22,16:15:00,85.94,86.105,85.94,86.06,1897,0
2017-11-22,16:20:00,86.12,86.215,86.0445,86.11,1400,0
2017-11-22,16:25:00,86.015,86.095,86.015,86.06,1152,0
2017-11-22,16:30:00,86.07,86.15,86.07,86.15,700,0
2017-11-22,16:35:00,86.07,86.07,85.94,86.01,2600,0
2017-11-22,16:40:00,86.07,86.07,85.97,85.97,500,0
2017-11-22,16:45:00,86,86.08,85.965,86.04,1100,0
2017-11-22,16:50:00,86.07,86.11,85.98,85.985,1100,0
2017-11-22,16:55:00,86.015,86.065,86,86,1600,0
2017-11-22,17:00:00,85.99,86.08,85.86,86.07,1900,0
2017-11-22,17:05:00,86.11,86.13,86.08,86.13,1100,0
2017-11-22,17:10:00,86.19,86.19,86.17,86.17,500,0
2017-11-22,17:20:00,86.15,86.17,86.12,86.12,1099,0
2017-11-22,17:25:00,86.089,86.089,86.089,86.089,225,0
2017-11-22,17:30:00,86.08,86.145,86.07,86.07,1200,0
2017-11-22,17:35:00,86.02,86.07,86.02,86.07,700,0
2017-11-22,17:40:00,86,86.05,86,86.05,401,0
2017-11-22,17:45:00,86.1,86.1,85.91,85.91,690,0
2017-11-22,17:55:00,85.9,85.9,85.85,85.9,1556,0
2017-11-22,18:10:00,85.98,85.98,85.95,85.95,200,0
2017-11-22,18:15:00,85.95,85.95,85.95,85.95,100,0
2017-11-22,18:20:00,85.93,85.93,85.86,85.875,736,0
2017-11-22,18:25:00,85.87,85.89,85.86,85.875,500,0
2017-11-22,18:30:00,85.89,85.99,85.89,85.97,1703,0
2017-11-22,18:35:00,85.935,85.935,85.935,85.935,100,0
2017-11-22,18:40:00,85.905,85.91,85.905,85.91,400,0
2017-11-22,18:50:00,85.88,85.88,85.85,85.85,200,0
2017-11-22,18:55:00,85.845,85.845,85.83,85.83,400,0
2017-11-22,19:00:00,85.83,85.83,85.82,85.82,614,0
2017-11-22,19:05:00,85.8,85.8,85.79,85.79,200,0
2017-11-22,19:10:00,85.83,85.84,85.815,85.84,1100,0
2017-11-22,19:15:00,85.85,85.89,85.81,85.89,1800,0
2017-11-22,19:20:00,85.945,85.99,85.94,85.99,1800,0
2017-11-22,19:25:00,85.96,85.965,85.96,85.965,620,0
2017-11-22,19:30:00,85.95,86.01,85.95,85.99,1765,0
2017-11-22,19:35:00,86.01,86.01,85.96,85.99,1036,0
2017-11-22,19:40:00,85.96,85.96,85.96,85.96,100,0
2017-11-22,19:45:00,85.99,86.0041,85.99,86.0041,715,0
2017-11-22,19:50:00,85.99,86.03,85.99,86.0261,315,0
2017-11-22,19:55:00,86.04,86.04,86,86,700,0
2017-11-22,20:00:00,85.97,85.99,85.97,85.99,1373,0
2017-11-22,20:05:00,86.03,86.03,86,86,400,0
2017-11-22,20:10:00,86,86.03,85.99,86.03,500,0
2017-11-22,20:15:00,86.04,86.0458,86.03,86.0458,1135,0
2017-11-22,20:20:00,86.02,86.02,85.97,85.97,900,0
2017-11-22,20:25:00,85.99,86.06,85.99,86.06,1342,0
2017-11-22,20:30:00,86.08,86.08,86.07,86.07,310,0
2017-11-22,20:35:00,86.03,86.06,86.025,86.06,1036,0
2017-11-22,20:40:00,86.02,86.06,86.02,86.05,880,0
2017-11-22,20:45:00,86.0394,86.0394,85.97,85.98,1577,0
2017-11-22,20:50:00,85.97,85.97,85.95,85.96,1200,0
2017-11-22,20:55:00,85.92,85.92,85.9,85.92,800,0
2017-11-22,21:00:00,85.92,85.92,85.87,85.87,463,0
2017-11-22,21:05:00,85.86,85.89,85.86,85.89,1005,0
2017-11-22,21:10:00,85.88,85.93,85.87,85.92,2555,0
2017-11-22,21:15:00,85.92,85.99,85.9,85.99,2200,0
2017-11-22,21:20:00,85.95,86.01,85.95,85.99,800,0
2017-11-22,21:30:00,85.98,86.02,85.96,86.02,3204,0
2017-11-22,21:35:00,85.985,86.05,85.985,86.05,1000,0
2017-11-22,21:40:00,86.05,86.09,86.03,86.09,3100,0
2017-11-22,21:45:00,86.095,86.1,86.05,86.05,3089,0
2017-11-22,21:50:00,86.03,86.03,85.92,85.92,5749,0
2017-11-22,21:55:00,85.92,85.965,85.92,85.92,5727,0
2017-11-22,22:00:00,85.91,85.92,85.85,85.85,17445,0
2017-11-24,15:35:00,85.49,85.49,85.1,85.1,6495,0
2017-11-24,15:40:00,85.99,86.02,85.31,85.895,7742,0
2017-11-24,15:45:00,85.91,85.92,85.32,85.42,2280,0
2017-11-24,15:50:00,85.42,85.66,85.37,85.66,2300,0
2017-11-24,15:55:00,85.59,85.685,85.59,85.67,1000,0
2017-11-24,16:00:00,85.58,85.62,85.54,85.58,2090,0
2017-11-24,16:05:00,85.56,85.57,85.49,85.5394,1326,0
2017-11-24,16:10:00,85.54,85.642,85.54,85.642,664,0
2017-11-24,16:15:00,85.68,85.73,85.675,85.73,1200,0
2017-11-24,16:20:00,85.74,85.78,85.69,85.78,800,0
2017-11-24,16:25:00,85.68,85.99,85.68,85.91,4546,0
2017-11-24,16:30:00,85.86,85.86,85.86,85.86,100,0
2017-11-24,16:35:00,85.9,85.9575,85.86,85.9575,1479,0
2017-11-24,16:40:00,85.98,86.05,85.98,86.05,1000,0
2017-11-24,16:45:00,86.05,86.08,86.01,86.08,600,0
2017-11-24,16:50:00,86.07,86.08,86,86.02,1596,0
2017-11-24,16:55:00,86.05,86.09,86.015,86.06,1600,0
2017-11-24,17:00:00,86.065,86.065,85.97,85.97,500,0
2017-11-24,17:05:00,85.96,85.96,85.93,85.94,1200,0
2017-11-24,17:10:00,85.98,85.99,85.97,85.98,600,0
2017-11-24,17:15:00,85.99,86,85.975,86,800,0
2017-11-24,17:20:00,86.04,86.04,85.92,85.92,2300,0
2017-11-24,17:25:00,85.91,85.96,85.91,85.93,1029,0
2017-11-24,17:30:00,85.945,85.985,85.93,85.985,1300,0
2017-11-24,17:35:00,86,86.03,86,86.03,766,0
2017-11-24,17:40:00,86.05,86.07,86.05,86.07,500,0
2017-11-24,17:45:00,86.07,86.07,86.01,86.02,1500,0
2017-11-24,17:50:00,86.04,86.05,86.04,86.05,200,0
2017-11-24,17:55:00,86.06,86.06,86.0325,86.0325,1100,0
2017-11-24,18:00:00,86.05,86.07,85.9966,85.9966,919,0
2017-11-24,18:05:00,86.03,86.06,86.03,86.06,800,0
2017-11-24,18:10:00,86.09,86.09,86.055,86.08,500,0
2017-11-24,18:15:00,86.08,86.08,86.02,86.07,1200,0
2017-11-24,18:20:00,86.09,86.09,86.08,86.09,751,0
2017-11-24,18:25:00,86.08,86.17,86.07,86.17,2200,0
2017-11-24,18:30:00,86.16,86.19,86.16,86.165,700,0
2017-11-24,18:35:00,86.2,86.28,86.17,86.28,1400,0
2017-11-24,18:40:00,86.2519,86.34,86.2519,86.3,2541,0
2017-11-24,18:45:00,86.29,86.29,86.13,86.2,2000,0
2017-11-24,18:50:00,86.17,86.29,86.17,86.27,2902,0
2017-11-24,18:55:00,86.29,86.34,86.25,86.3,3000,0
2017-11-24,19:00:00,86.26,86.31,86.16,86.23,8292,0
2017-11-24,19:05:00,86.25,86.25,86.25,86.25,11007,0
2017-11-27,15:35:00,86.37,86.53,86.37,86.53,2722,0
2017-11-27,15:40:00,86.6,86.81,86.6,86.74,1200,0
2017-11-27,15:45:00,86.63,86.66,86.61,86.64,1400,0
2017-11-27,15:55:00,86.52,86.57,86.47,86.57,1600,0
2017-11-27,16:00:00,86.55,86.76,86.55,86.71,3300,0
2017-11-27,16:05:00,86.75,86.75,86.63,86.675,900,0
2017-11-27,16:10:00,86.63,86.64,86.58,86.59,1669,0
2017-11-27,16:15:00,86.6,86.67,86.57,86.58,3300,0
2017-11-27,16:20:00,86.52,86.65,86.52,86.6,2250,0
2017-11-27,16:25:00,86.575,86.63,86.575,86.6,1300,0
2017-11-27,16:30:00,86.59,86.64,86.58,86.62,3152,0
2017-11-27,16:35:00,86.62,86.625,86.59,86.59,2300,0
2017-11-27,16:40:00,86.59,86.605,86.58,86.58,2050,0
2017-11-27,16:45:00,86.62,86.64,86.615,86.64,11699,0
2017-11-27,16:50:00,86.64,86.65,86.6,86.6,3083,0
2017-11-27,16:55:00,86.58,86.61,86.56,86.6,1971,0
2017-11-27,17:00:00,86.62,86.63,86.6,86.62,1700,0
2017-11-27,17:05:00,86.6,86.63,86.5925,86.625,1800,0
2017-11-27,17:10:00,86.62,86.63,86.56,86.61,8498,0
2017-11-27,17:15:00,86.605,86.605,86.5,86.5,2701,0
2017-11-27,17:20:00,86.54,86.5781,86.52,86.52,1325,0
2017-11-27,17:25:00,86.57,86.57,86.57,86.57,600,0
2017-11-27,17:30:00,86.59,86.6,86.59,86.6,500,0
2017-11-27,17:35:00,86.6,86.6,86.59,86.59,200,0
2017-11-27,17:40:00,86.6,86.625,86.6,86.61,4507,0
2017-11-27,17:45:00,86.6225,86.65,86.62,86.65,3900,0
2017-11-27,17:50:00,86.64,86.7,86.64,86.7,6700,0
2017-11-27,17:55:00,86.66,86.66,86.66,86.66,300,0
2017-11-27,18:00:00,86.72,86.73,86.71,86.73,500,0
2017-11-27,18:05:00,86.68,86.69,86.68,86.69,705,0
2017-11-27,18:10:00,86.71,86.83,86.71,86.83,1200,0
2017-11-27,18:15:00,86.82,86.85,86.82,86.85,800,0
2017-11-27,18:20:00,86.85,86.88,86.85,86.88,807,0
2017-11-27,18:25:00,86.88,86.89,86.88,86.89,200,0
2017-11-27,18:30:00,86.9,86.93,86.89,86.89,2173,0
2017-11-27,18:35:00,86.89,86.9,86.84,86.84,1691,0
2017-11-27,18:40:00,86.835,86.835,86.79,86.79,4093,0
2017-11-27,18:45:00,86.81,86.81,86.81,86.81,100,0
2017-11-27,18:50:00,86.79,86.8,86.79,86.8,200,0
2017-11-27,18:55:00,86.815,86.85,86.81,86.85,1900,0
2017-11-27,19:00:00,86.82,86.82,86.8,86.805,1167,0
2017-11-27,19:05:00,86.82,86.88,86.81,86.865,2527,0
2017-11-27,19:10:00,86.865,86.88,86.865,86.88,600,0
2017-11-27,19:15:00,86.87,86.87,86.83,86.85,1482,0
2017-11-27,19:20:00,86.85,86.85,86.835,86.85,504,0
2017-11-27,19:25:00,86.83,86.83,86.8,86.8,1147,0
2017-11-27,19:30:00,86.77,86.81,86.77,86.77,700,0
2017-11-27,19:35:00,86.8,86.815,86.8,86.815,300,0
2017-11-27,19:40:00,86.82,86.85,86.81,86.85,1741,0
2017-11-27,19:45:00,86.845,86.89,86.845,86.875,1400,0
2017-11-27,19:50:00,86.86,86.89,86.86,86.865,500,0
2017-11-27,19:55:00,86.87,86.925,86.865,86.925,3855,0
2017-11-27,20:00:00,86.92,86.94,86.905,86.94,3318,0
2017-11-27,20:05:00,86.94,87,86.94,86.95,4851,0
2017-11-27,20:10:00,86.9575,86.9575,86.81,86.81,2686,0
2017-11-27,20:15:00,86.835,86.86,86.835,86.85,709,0
2017-11-27,20:20:00,86.835,86.85,86.81,86.81,2001,0
2017-11-27,20:25:00,86.8,86.8,86.7,86.71,1500,0
2017-11-27,20:30:00,86.74,86.75,86.72,86.73,2000,0
2017-11-27,20:35:00,86.7498,86.79,86.7498,86.785,850,0
2017-11-27,20:40:00,86.77,86.8,86.76,86.8,1441,0
2017-11-27,20:45:00,86.795,86.82,86.795,86.815,2707,0
2017-11-27,20:50:00,86.81,86.83,86.755,86.83,2900,0
2017-11-27,20:55:00,86.84,86.85,86.825,86.85,900,0
2017-11-27,21:00:00,86.835,86.85,86.835,86.85,900,0
2017-11-27,21:05:00,86.855,86.855,86.82,86.82,600,0
2017-11-27,21:10:00,86.835,86.85,86.835,86.845,1880,0
2017-11-27,21:15:00,86.855,86.855,86.83,86.85,1015,0
2017-11-27,21:20:00,86.84,86.88,86.82,86.865,6654,0
2017-11-27,21:25:00,86.87,86.91,86.83,86.83,6115,0
2017-11-27,21:30:00,86.835,86.855,86.83,86.855,5091,0
2017-11-27,21:35:00,86.855,86.86,86.85,86.85,2300,0
2017-11-27,21:40:00,86.86,86.88,86.86,86.87,4304,0
2017-11-27,21:45:00,86.865,86.87,86.865,86.87,6666,0
2017-11-27,21:50:00,86.86,86.86,86.81,86.82,4400,0
2017-11-27,21:55:00,86.81,86.89,86.8,86.81,11110,0
2017-11-27,22:00:00,86.82,86.85,86.73,86.74,62317,0
2017-11-28,15:35:00,87.28,87.28,87.28,87.28,3570,0
2017-11-28,15:40:00,86.945,86.945,86.945,86.945,100,0
2017-11-28,15:45:00,87.21,87.4699,87.03,87.24,4300,0
2017-11-28,15:50:00,87.08,87.24,86.96,87.13,3610,0
2017-11-28,15:55:00,87.14,87.14,87.02,87.07,900,0
2017-11-28,16:00:00,87.14,87.14,87.07,87.12,500,0
2017-11-28,16:05:00,87.05,87.07,87.01,87.03,1704,0
2017-11-28,16:10:00,87.06,87.1297,87.04,87.09,1200,0
2017-11-28,16:15:00,87.12,87.16,87.11,87.11,1498,0
2017-11-28,16:20:00,87.09,87.11,86.93,86.93,2100,0
2017-11-28,16:25:00,86.95,86.96,86.92,86.96,400,0
2017-11-28,16:30:00,86.96,87,86.93,86.99,1953,0
2017-11-28,16:35:00,87,87,86.9,86.95,764,0
2017-11-28,16:40:00,86.94,86.94,86.9,86.92,1000,0
2017-11-28,16:45:00,86.97,86.97,86.92,86.92,200,0
2017-11-28,16:50:00,86.94,86.99,86.91,86.96,2439,0
2017-11-28,17:00:00,86.95,86.99,86.93,86.99,1121,0
2017-11-28,17:05:00,86.96,86.97,86.91,86.97,1100,0
2017-11-28,17:10:00,86.96,86.96,86.92,86.92,1039,0
2017-11-28,17:15:00,86.89,86.9,86.88,86.9,400,0
2017-11-28,17:20:00,86.88,86.94,86.88,86.9,1406,0
2017-11-28,17:25:00,86.91,86.91,86.865,86.9,900,0
2017-11-28,17:30:00,86.86,86.9,86.86,86.86,400,0
2017-11-28,17:35:00,86.9,86.91,86.865,86.865,1400,0
2017-11-28,17:40:00,86.81,86.92,86.81,86.9,1653,0
2017-11-28,17:45:00,86.91,86.91,86.85,86.85,818,0
2017-11-28,17:50:00,86.84,86.84,86.84,86.84,300,0
2017-11-28,17:55:00,86.865,86.865,86.78,86.83,600,0
2017-11-28,18:00:00,86.86,86.9,86.82,86.9,1704,0
2017-11-28,18:05:00,86.9,86.9,86.84,86.87,1038,0
2017-11-28,18:10:00,86.79,86.84,86.71,86.71,1412,0
2017-11-28,18:15:00,86.8,86.8,86.79,86.8,700,0
2017-11-28,18:20:00,86.78,86.79,86.775,86.79,500,0
2017-11-28,18:25:00,86.79,86.81,86.785,86.8,686,0
2017-11-28,18:30:00,86.76,86.765,86.54,86.55,2469,0
2017-11-28,18:35:00,86.54,86.59,86.54,86.54,700,0
2017-11-28,18:40:00,86.56,86.56,86.43,86.47,3245,0
2017-11-28,18:45:00,86.54,86.56,86.53,86.56,400,0
2017-11-28,18:50:00,86.57,86.66,86.57,86.66,971,0
2017-11-28,18:55:00,86.62,86.62,86.566,86.588,1510,0
2017-11-28,19:00:00,86.56,86.63,86.56,86.62,800,0
2017-11-28,19:05:00,86.65,86.66,86.65,86.66,300,0
2017-11-28,19:10:00,86.68,86.73,86.68,86.69,954,0
2017-11-28,19:15:00,86.72,86.72,86.68,86.68,368,0
2017-11-28,19:20:00,86.71,86.76,86.7,86.76,814,0
2017-11-28,19:25:00,86.74,86.75,86.71,86.72,1800,0
2017-11-28,19:30:00,86.71,86.71,86.66,86.69,2500,0
2017-11-28,19:35:00,86.71,86.75,86.68,86.74,996,0
2017-11-28,19:40:00,86.74,86.74,86.7,86.7,500,0
2017-11-28,19:45:00,86.6857,86.69,86.67,86.67,1793,0
2017-11-28,19:50:00,86.67,86.67,86.66,86.66,400,0
2017-11-28,19:55:00,86.65,86.65,86.535,86.55,1900,0
2017-11-28,20:00:00,86.52,86.52,86.49,86.51,1454,0
2017-11-28,20:05:00,86.54,86.54,86.46,86.46,1300,0
2017-11-28,20:10:00,86.48,86.57,86.48,86.57,1300,0
2017-11-28,20:15:00,86.57,86.59,86.56,86.59,835,0
2017-11-28,20:20:00,86.59,86.62,86.59,86.62,700,0
2017-11-28,20:25:00,86.62,86.64,86.62,86.64,448,0
2017-11-28,20:30:00,86.67,86.72,86.66,86.72,1170,0
2017-11-28,20:35:00,86.74,86.79,86.74,86.79,1002,0
2017-11-28,20:40:00,86.77,86.81,86.77,86.78,820,0
2017-11-28,20:45:00,86.785,86.8,86.785,86.8,514,0
2017-11-28,20:50:00,86.87,86.97,86.87,86.97,800,0
2017-11-28,20:55:00,86.95,87,86.95,86.99,5362,0
2017-11-28,21:00:00,87,87,86.95,86.99,3029,0
2017-11-28,21:05:00,86.93,86.98,86.88,86.88,1500,0
2017-11-28,21:10:00,86.86,86.89,86.85,86.89,1802,0
2017-11-28,21:15:00,86.89,86.95,86.88,86.93,3712,0
2017-11-28,21:20:00,86.94,86.96,86.94,86.96,886,0
2017-11-28,21:25:00,86.99,87,86.97,87,5674,0
2017-11-28,21:30:00,87,87.03,86.86,86.91,23027,0
2017-11-28,21:35:00,86.91,86.94,86.9,86.925,3496,0
2017-11-28,21:40:00,86.88,86.93,86.87,86.93,2500,0
2017-11-28,21:45:00,86.91,86.97,86.9,86.965,3336,0
2017-11-28,21:50:00,86.95,86.965,86.92,86.92,5382,0
2017-11-28,21:55:00,86.89,86.92,86.89,86.91,6487,0
2017-11-28,22:00:00,86.905,86.94,86.87,86.91,20875,0
2017-11-29,15:35:00,87.11,87.565,87.11,87.565,1786,0
2017-11-29,15:40:00,87.57,87.57,87.1,87.45,700,0
2017-11-29,15:45:00,87.12,87.43,87.08,87.43,3065,0
2017-11-29,15:50:00,87.43,87.57,87.43,87.56,1400,0
2017-11-29,15:55:00,87.51,87.51,87.36,87.43,1400,0
2017-11-29,16:00:00,87.43,87.72,87.43,87.72,822,0
2017-11-29,16:05:00,87.69,87.74,87.56,87.56,2455,0
2017-11-29,16:10:00,87.59,87.62,87.5,87.51,1899,0
2017-11-29,16:15:00,87.45,87.6,87.43,87.44,2877,0
2017-11-29,16:20:00,87.41,87.41,87.37,87.39,679,0
2017-11-29,16:25:00,87.465,87.465,87.325,87.45,1400,0
2017-11-29,16:30:00,87.44,87.44,87.33,87.33,1500,0
2017-11-29,16:35:00,87.28,87.31,87.28,87.28,400,0
2017-11-29,16:40:00,87.35,87.4,87.32,87.4,1500,0
2017-11-29,16:45:00,87.42,87.42,87.38,87.38,1233,0
2017-11-29,16:50:00,87.35,87.35,87.26,87.29,700,0
2017-11-29,16:55:00,87.32,87.345,87.25,87.25,1931,0
2017-11-29,17:00:00,87.29,87.35,87.27,87.35,1586,0
2017-11-29,17:05:00,87.325,87.44,87.325,87.44,1000,0
2017-11-29,17:10:00,87.49,87.5,87.47,87.47,642,0
2017-11-29,17:15:00,87.47,87.47,87.46,87.465,1200,0
2017-11-29,17:20:00,87.45,87.55,87.44,87.55,2222,0
2017-11-29,17:25:00,87.54,87.565,87.53,87.56,1644,0
2017-11-29,17:30:00,87.52,87.52,87.475,87.505,999,0
2017-11-29,17:35:00,87.515,87.515,87.49,87.49,400,0
2017-11-29,17:40:00,87.5,87.5,87.47,87.47,1200,0
2017-11-29,17:45:00,87.5,87.54,87.5,87.52,2444,0
2017-11-29,17:50:00,87.52,87.56,87.52,87.56,659,0
2017-11-29,17:55:00,87.59,87.6,87.58,87.58,1172,0
2017-11-29,18:00:00,87.55,87.62,87.54,87.6,1965,0
2017-11-29,18:05:00,87.58,87.6,87.55,87.55,1200,0
2017-11-29,18:10:00,87.57,87.61,87.57,87.61,1300,0
2017-11-29,18:15:00,87.62,87.6499,87.62,87.6499,1700,0
2017-11-29,18:20:00,87.64,87.64,87.56,87.56,1528,0
2017-11-29,18:25:00,87.59,87.61,87.58,87.61,800,0
2017-11-29,18:30:00,87.61,87.61,87.49,87.49,1100,0
2017-11-29,18:35:00,87.49,87.49,87.47,87.47,500,0
2017-11-29,18:40:00,87.48,87.49,87.46,87.49,1210,0
2017-11-29,18:45:00,87.47,87.5,87.47,87.4775,1000,0
2017-11-29,18:50:00,87.46,87.46,87.42,87.43,1501,0
2017-11-29,18:55:00,87.41,87.41,87.27,87.2921,1304,0
2017-11-29,19:00:00,87.31,87.44,87.31,87.44,1769,0
2017-11-29,19:05:00,87.41,87.425,87.31,87.31,1200,0
2017-11-29,19:10:00,87.31,87.34,87.31,87.34,300,0
2017-11-29,19:15:00,87.26,87.27,87.2,87.2,2296,0
2017-11-29,19:20:00,87.2,87.24,87.2,87.2,673,0
2017-11-29,19:25:00,87.2101,87.23,87.2101,87.22,800,0
2017-11-29,19:30:00,87.24,87.28,87.24,87.28,700,0
2017-11-29,19:35:00,87.28,87.33,87.27,87.33,1700,0
2017-11-29,19:40:00,87.33,87.37,87.26,87.26,2100,0
2017-11-29,19:45:00,87.28,87.32,87.27,87.3,1200,0
2017-11-29,19:50:00,87.28,87.32,87.28,87.28,400,0
2017-11-29,19:55:00,87.29,87.31,87.2596,87.29,1200,0
2017-11-29,20:00:00,87.29,87.325,87.25,87.25,2000,0
2017-11-29,20:05:00,87.26,87.31,87.26,87.31,1100,0
2017-11-29,20:10:00,87.285,87.285,87.255,87.255,1100,0
2017-11-29,20:15:00,87.28,87.34,87.25,87.27,4924,0
2017-11-29,20:20:00,87.29,87.34,87.28,87.3,1999,0
2017-11-29,20:25:00,87.29,87.31,87.28,87.31,1100,0
2017-11-29,20:30:00,87.34,87.34,87.31,87.34,900,0
2017-11-29,20:35:00,87.335,87.35,87.32,87.33,1000,0
2017-11-29,20:40:00,87.3,87.326,87.28,87.32,986,0
2017-11-29,20:45:00,87.32,87.34,87.305,87.32,1815,0
2017-11-29,20:50:00,87.28,87.32,87.2727,87.28,1276,0
2017-11-29,20:55:00,87.31,87.31,87.28,87.3,1100,0
2017-11-29,21:00:00,87.27,87.29,87.26,87.29,971,0
2017-11-29,21:05:00,87.27,87.33,87.26,87.33,3738,0
2017-11-29,21:10:00,87.32,87.41,87.32,87.41,4504,0
2017-11-29,21:15:00,87.4,87.41,87.35,87.36,2818,0
2017-11-29,21:20:00,87.35,87.37,87.34,87.3401,1686,0
2017-11-29,21:25:00,87.38,87.4,87.37,87.39,1600,0
2017-11-29,21:30:00,87.39,87.43,87.39,87.43,2346,0
2017-11-29,21:35:00,87.43,87.52,87.43,87.52,2200,0
2017-11-29,21:40:00,87.53,87.615,87.52,87.61,4322,0
2017-11-29,21:45:00,87.62,87.65,87.61,87.62,2765,0
2017-11-29,21:50:00,87.63,87.63,87.54,87.54,6798,0
2017-11-29,21:55:00,87.56,87.56,87.5,87.51,2916,0
2017-11-29,22:00:00,87.51,87.6,87.5,87.56,32237,0
2017-11-30,15:35:00,87.61,87.73,87.3,87.61,9428,0
2017-11-30,15:40:00,87.45,87.6,87.21,87.34,1807,0
2017-11-30,15:45:00,87.41,87.46,87.08,87.39,3870,0
2017-11-30,15:50:00,87.45,87.47,87.21,87.46,2100,0
2017-11-30,15:55:00,87.35,87.49,87.33,87.49,1100,0
2017-11-30,16:00:00,87.53,87.67,87.48,87.67,1400,0
2017-11-30,16:05:00,87.6,87.66,87.58,87.66,1500,0
2017-11-30,16:10:00,87.68,87.72,87.67,87.69,900,0
2017-11-30,16:15:00,87.77,87.82,87.77,87.82,300,0
2017-11-30,16:20:00,87.83,87.83,87.79,87.8,1603,0
2017-11-30,16:25:00,87.8,87.86,87.8,87.86,600,0
2017-11-30,16:30:00,87.8,87.86,87.8,87.8399,1656,0
2017-11-30,16:35:00,87.83,87.85,87.8,87.8,1837,0
2017-11-30,16:40:00,87.78,87.78,87.59,87.59,1100,0
2017-11-30,16:45:00,87.68,87.68,87.58,87.58,1407,0
2017-11-30,16:50:00,87.63,87.65,87.57,87.59,1900,0
2017-11-30,16:55:00,87.62,87.66,87.61,87.625,1375,0
2017-11-30,17:00:00,87.66,87.85,87.65,87.75,3512,0
2017-11-30,17:05:00,87.75,87.92,87.75,87.91,3781,0
2017-11-30,17:10:00,87.8815,87.9,87.87,87.88,1875,0
2017-11-30,17:15:00,87.89,87.93,87.85,87.93,1500,0
2017-11-30,17:20:00,87.945,88,87.93,88,2530,0
2017-11-30,17:25:00,88.025,88.025,87.99,87.99,700,0
2017-11-30,17:30:00,87.97,88,87.93,87.93,2020,0
2017-11-30,17:35:00,87.94,87.97,87.93,87.97,800,0
2017-11-30,17:40:00,87.97,88.02,87.97,88.02,797,0
2017-11-30,17:45:00,88.04,88.09,88.04,88.09,316,0
2017-11-30,17:50:00,88.03,88.11,88.03,88.11,1165,0
2017-11-30,17:55:00,88.11,88.135,88.1,88.11,2200,0
2017-11-30,18:00:00,88.115,88.16,88.115,88.16,1217,0
2017-11-30,18:05:00,88.2,88.215,88.2,88.215,400,0
2017-11-30,18:10:00,88.215,88.27,88.215,88.27,530,0
2017-11-30,18:15:00,88.27,88.4,88.27,88.4,700,0
2017-11-30,18:20:00,88.43,88.43,88.43,88.43,200,0
2017-11-30,18:25:00,88.46,88.55,88.46,88.55,411,0
2017-11-30,18:30:00,88.5,88.56,88.49,88.5,4298,0
2017-11-30,18:35:00,88.58,88.64,88.56,88.64,629,0
2017-11-30,18:40:00,88.67,88.71,88.67,88.7,1500,0
2017-11-30,18:45:00,88.73,88.79,88.72,88.79,1612,0
2017-11-30,18:50:00,88.82,88.9,88.82,88.86,1300,0
2017-11-30,18:55:00,88.85,88.85,88.82,88.82,300,0
2017-11-30,19:00:00,88.8,88.8,88.72,88.72,1719,0
2017-11-30,19:05:00,88.72,88.8,88.72,88.79,2849,0
2017-11-30,19:10:00,88.79,88.81,88.73,88.73,1100,0
2017-11-30,19:15:00,88.71,88.71,88.55,88.55,3124,0
2017-11-30,19:20:00,88.55,88.55,88.5229,88.5229,1310,0
2017-11-30,19:25:00,88.5,88.5,88.44,88.45,1100,0
2017-11-30,19:30:00,88.455,88.52,88.455,88.49,1653,0
2017-11-30,19:35:00,88.505,88.53,88.37,88.37,1800,0
2017-11-30,19:40:00,88.43,88.43,88.36,88.36,400,0
2017-11-30,19:45:00,88.36,88.36,88.28,88.3,1317,0
2017-11-30,19:50:00,88.32,88.36,88.3,88.36,1100,0
2017-11-30,19:55:00,88.37,88.37,88.3187,88.35,1882,0
2017-11-30,20:00:00,88.36,88.44,88.36,88.41,900,0
2017-11-30,20:05:00,88.41,88.44,88.36,88.375,2448,0
2017-11-30,20:10:00,88.33,88.38,88.245,88.245,2161,0
2017-11-30,20:15:00,88.25,88.31,88.25,88.31,700,0
2017-11-30,20:20:00,88.3,88.3,88.26,88.3,990,0
2017-11-30,20:25:00,88.32,88.36,88.31,88.33,1490,0
2017-11-30,20:30:00,88.3425,88.37,88.33,88.35,2819,0
2017-11-30,20:35:00,88.335,88.35,88.325,88.35,2251,0
2017-11-30,20:40:00,88.34,88.34,88.29,88.31,1700,0
2017-11-30,20:45:00,88.31,88.36,88.29,88.34,1737,0
2017-11-30,20:50:00,88.36,88.36,88.24,88.245,3302,0
2017-11-30,20:55:00,88.28,88.36,88.27,88.36,876,0
2017-11-30,21:00:00,88.38,88.38,88.32,88.32,1214,0
2017-11-30,21:05:00,88.3,88.33,88.25,88.29,2290,0
2017-11-30,21:10:00,88.27,88.31,88.25,88.25,900,0
2017-11-30,21:15:00,88.24,88.27,88.23,88.26,1200,0
2017-11-30,21:20:00,88.31,88.31,88.285,88.285,700,0
2017-11-30,21:25:00,88.27,88.35,88.26,88.31,1450,0
2017-11-30,21:30:00,88.32,88.33,88.32,88.325,500,0
2017-11-30,21:35:00,88.34,88.34,88.3,88.32,2647,0
2017-11-30,21:40:00,88.36,88.381,88.3,88.33,3122,0
2017-11-30,21:45:00,88.27,88.345,88.27,88.3,4046,0
2017-11-30,21:50:00,88.32,88.53,88.31,88.53,5700,0
2017-11-30,21:55:00,88.53,88.57,88.42,88.49,5203,0
2017-11-30,22:00:00,88.57,88.57,88.41,88.41,47928,0
2017-12-01,15:35:00,88.33,88.67,88.33,88.36,3936,0
2017-12-01,15:40:00,88.35,88.73,88.35,88.72,1016,0
2017-12-01,15:45:00,88.77,88.77,88.73,88.73,400,0
2017-12-01,15:50:00,88.68,88.68,88.44,88.44,200,0
2017-12-01,15:55:00,88.46,88.99,88.46,88.93,2850,0
2017-12-01,16:00:00,88.8,88.82,88.63,88.72,1900,0
2017-12-01,16:05:00,88.39,88.64,88.39,88.6,1800,0
2017-12-01,16:15:00,88.41,88.705,88.41,88.65,3500,0
2017-12-01,16:20:00,88.58,88.61,88.51,88.56,1200,0
2017-12-01,16:25:00,88.465,88.465,88.43,88.43,300,0
2017-12-01,16:30:00,88.38,88.39,88.25,88.29,2200,0
2017-12-01,16:35:00,88.34,88.4,88.295,88.31,2382,0
2017-12-01,16:40:00,88.25,88.25,88.16,88.16,1600,0
2017-12-01,16:45:00,88.19,88.28,88.16,88.22,2000,0
2017-12-01,16:50:00,88.205,88.205,87.915,87.94,8500,0
2017-12-01,16:55:00,87.94,87.97,87.94,87.97,1334,0
2017-12-01,17:00:00,87.97,87.97,87.91,87.91,900,0
2017-12-01,17:05:00,87.9,87.945,87.89,87.89,600,0
2017-12-01,17:10:00,87.87,87.87,87.51,87.51,1391,0
2017-12-01,17:15:00,87.54,87.54,86.81,87.15,2804,0
2017-12-01,17:20:00,87.1,87.195,87.1,87.195,1200,0
2017-12-01,17:25:00,87.1735,87.1735,86.79,86.79,3400,0
2017-12-01,17:30:00,86.78,86.96,86.486,86.72,5972,0
2017-12-01,17:35:00,86.57,86.57,86.44,86.52,1100,0
2017-12-01,17:40:00,86.62,86.81,86.575,86.81,1600,0
2017-12-01,17:45:00,86.805,86.91,86.57,86.57,2903,0
2017-12-01,17:50:00,86.64,86.77,86.6,86.69,2000,0
2017-12-01,17:55:00,86.64,86.74,86.53,86.65,3400,0
2017-12-01,18:00:00,86.64,86.99,86.62,86.86,1400,0
2017-12-01,18:05:00,86.94,86.98,86.94,86.98,200,0
2017-12-01,18:10:00,87.07,87.11,86.92,86.92,1700,0
2017-12-01,18:15:00,86.98,87.06,86.94,86.94,3500,0
2017-12-01,18:20:00,86.96,87.1125,86.96,86.99,1800,0
2017-12-01,18:25:00,87.06,87.07,87.02,87.04,1300,0
2017-12-01,18:30:00,87.0682,87.1,87.03,87.03,1791,0
2017-12-01,18:35:00,87.06,87.14,87.06,87.135,600,0
2017-12-01,18:40:00,87.135,87.295,87.135,87.295,1753,0
2017-12-01,18:45:00,87.27,87.29,87.225,87.29,900,0
2017-12-01,18:50:00,87.22,87.26,87.22,87.26,1000,0
2017-12-01,18:55:00,87.24,87.29,87.22,87.29,900,0
2017-12-01,19:00:00,87.31,87.31,87.23,87.28,802,0
2017-12-01,19:05:00,87.275,87.35,87.275,87.3,700,0
2017-12-01,19:10:00,87.28,87.28,87.28,87.28,100,0
2017-12-01,19:15:00,87.28,87.345,87.28,87.34,800,0
2017-12-01,19:20:00,87.36,87.37,87.35,87.36,1576,0
2017-12-01,19:25:00,87.36,87.39,87.36,87.39,200,0
2017-12-01,19:30:00,87.4,87.4,87.35,87.37,700,0
2017-12-01,19:35:00,87.4,87.51,87.4,87.47,1300,0
2017-12-01,19:40:00,87.48,87.56,87.48,87.54,1118,0
2017-12-01,19:45:00,87.55,87.55,87.535,87.55,500,0
2017-12-01,19:50:00,87.54,87.59,87.48,87.5744,2198,0
2017-12-01,19:55:00,87.62,87.7,87.62,87.67,500,0
2017-12-01,20:00:00,87.68,87.74,87.62,87.62,2708,0
2017-12-01,20:05:00,87.64,87.74,87.64,87.74,948,0
2017-12-01,20:10:00,87.74,87.74,87.64,87.71,1400,0
2017-12-01,20:15:00,87.69,87.72,87.62,87.62,1000,0
2017-12-01,20:20:00,87.61,87.695,87.61,87.695,1900,0
2017-12-01,20:25:00,87.63,87.65,87.59,87.59,1871,0
2017-12-01,20:30:00,87.56,87.57,87.51,87.56,1900,0
2017-12-01,20:35:00,87.51,87.58,87.51,87.58,600,0
2017-12-01,20:40:00,87.56,87.66,87.56,87.63,1500,0
2017-12-01,20:45:00,87.6,87.63,87.455,87.55,3623,0
2017-12-01,20:50:00,87.525,87.53,87.42,87.5,2300,0
2017-12-01,20:55:00,87.5,87.5,87.43,87.44,2465,0
2017-12-01,21:00:00,87.44,87.455,87.43,87.45,1900,0
2017-12-01,21:05:00,87.43,87.52,87.425,87.51,3302,0
2017-12-01,21:10:00,87.52,87.56,87.47,87.56,2400,0
2017-12-01,21:15:00,87.57,87.58,87.52,87.58,2775,0
2017-12-01,21:20:00,87.59,87.66,87.59,87.66,1640,0
2017-12-01,21:25:00,87.66,87.71,87.65,87.7,1100,0
2017-12-01,21:30:00,87.72,87.78,87.705,87.78,2920,0
2017-12-01,21:35:00,87.77,87.82,87.76,87.781,3568,0
2017-12-01,21:40:00,87.82,87.84,87.78,87.8,4254,0
2017-12-01,21:45:00,87.8,87.84,87.77,87.79,3920,0
2017-12-01,21:50:00,87.79,87.81,87.57,87.62,8426,0
2017-12-01,21:55:00,87.66,87.66,87.53,87.58,9228,0
2017-12-01,22:00:00,87.58,87.7,87.58,87.6,37874,0
2017-12-04,15:35:00,87.79,87.79,87.32,87.3255,7721,0
2017-12-04,15:40:00,87.63,88.05,87.335,88.05,2600,0
2017-12-04,15:45:00,87.785,88.32,87.785,88.32,400,0
2017-12-04,15:50:00,88.08,88.16,87.8,87.97,8115,0
2017-12-04,15:55:00,88.05,88.19,87.94,88.1825,6760,0
2017-12-04,16:00:00,88.19,88.41,88.18,88.29,3200,0
2017-12-04,16:05:00,88.315,88.64,88.08,88.08,6300,0
2017-12-04,16:10:00,88.18,88.44,88.11,88.14,6639,0
2017-12-04,16:15:00,88.16,88.2,88.05,88.1,1300,0
2017-12-04,16:20:00,88.05,88.1,88.01,88.04,1604,0
2017-12-04,16:25:00,87.96,88.09,87.94,88.07,1300,0
2017-12-04,16:30:00,87.9391,87.9391,87.93,87.93,350,0
2017-12-04,16:35:00,88.01,88.06,88.01,88.055,500,0
2017-12-04,16:40:00,88.045,88.21,88.045,88.21,1600,0
2017-12-04,16:45:00,88.21,88.21,87.86,88.01,3272,0
2017-12-04,16:50:00,88.03,88.48,88.02,88.46,3128,0
2017-12-04,16:55:00,88.42,88.584,88.37,88.47,4399,0
2017-12-04,17:00:00,88.52,88.66,88.52,88.66,1402,0
2017-12-04,17:05:00,88.66,88.6999,88.43,88.43,3827,0
2017-12-04,17:10:00,88.36,88.46,88.25,88.44,5049,0
2017-12-04,17:15:00,88.3897,88.3897,88.27,88.27,900,0
2017-12-04,17:20:00,88.25,88.3,88.22,88.27,1100,0
2017-12-04,17:25:00,88.36,88.43,88.26,88.26,2500,0
2017-12-04,17:30:00,88.22,88.26,88.19,88.19,1888,0
2017-12-04,17:35:00,88.2,88.26,88.02,88.08,3376,0
2017-12-04,17:40:00,88.17,88.39,88.17,88.33,1970,0
2017-12-04,17:45:00,88.27,88.27,88.22,88.22,800,0
2017-12-04,17:50:00,88.18,88.27,88.18,88.26,1467,0
2017-12-04,17:55:00,88.28,88.36,88.28,88.32,1800,0
2017-12-04,18:00:00,88.36,88.4,88.36,88.38,700,0
2017-12-04,18:05:00,88.42,88.46,88.42,88.46,400,0
2017-12-04,18:10:00,88.49,88.49,88.405,88.41,1750,0
2017-12-04,18:15:00,88.408,88.408,88.35,88.35,800,0
2017-12-04,18:20:00,88.34,88.37,88.33,88.37,856,0
2017-12-04,18:25:00,88.38,88.38,88.38,88.38,100,0
2017-12-04,18:30:00,88.38,88.43,88.28,88.28,3479,0
2017-12-04,18:35:00,88.31,88.31,88.26,88.29,600,0
2017-12-04,18:40:00,88.29,88.315,88.25,88.28,1656,0
2017-12-04,18:45:00,88.32,88.33,88.32,88.32,1225,0
2017-12-04,18:50:00,88.29,88.33,88.28,88.33,400,0
2017-12-04,18:55:00,88.3,88.3,88.26,88.276,800,0
2017-12-04,19:00:00,88.3,88.35,88.3,88.35,500,0
2017-12-04,19:05:00,88.36,88.36,88.29,88.29,1443,0
2017-12-04,19:10:00,88.24,88.24,88.0829,88.11,1748,0
2017-12-04,19:15:00,88.18,88.22,88.18,88.22,880,0
2017-12-04,19:20:00,88.2,88.215,88.13,88.13,700,0
2017-12-04,19:25:00,88.16,88.2,88.16,88.2,600,0
2017-12-04,19:30:00,88.19,88.2,88.11,88.12,1200,0
2017-12-04,19:35:00,88.14,88.31,88.14,88.31,1575,0
2017-12-04,19:40:00,88.26,88.275,88.26,88.275,300,0
2017-12-04,19:45:00,88.3,88.3,88.3,88.3,100,0
2017-12-04,19:50:00,88.285,88.3,88.28,88.3,1470,0
2017-12-04,19:55:00,88.28,88.29,88.23,88.28,2095,0
2017-12-04,20:00:00,88.28,88.28,88.2,88.2,1120,0
2017-12-04,20:05:00,88.205,88.23,88.13,88.13,1402,0
2017-12-04,20:10:00,88.09,88.09,87.99,88.0203,3611,0
2017-12-04,20:15:00,87.97,88.02,87.95,88.01,1300,0
2017-12-04,20:20:00,88,88,87.92,87.98,2102,0
2017-12-04,20:25:00,87.975,87.975,87.96,87.975,1302,0
2017-12-04,20:30:00,87.93,88.01,87.91,88.01,900,0
2017-12-04,20:35:00,88.01,88.01,87.98,87.99,700,0
2017-12-04,20:40:00,88.02,88.02,87.9425,87.9425,1702,0
2017-12-04,20:45:00,87.95,88.08,87.95,88.08,2360,0
2017-12-04,20:50:00,88.05,88.05,88.01,88.01,2201,0
2017-12-04,20:55:00,88.03,88.1,88.03,88.09,1300,0
2017-12-04,21:00:00,88.15,88.15,88.1,88.15,400,0
2017-12-04,21:05:00,88.15,88.21,88.06,88.07,4251,0
2017-12-04,21:10:00,88.09,88.18,88.07,88.18,2459,0
2017-12-04,21:15:00,88.16,88.2,88.11,88.11,3905,0
2017-12-04,21:20:00,88.1,88.12,88.05,88.07,3281,0
2017-12-04,21:25:00,88.05,88.11,88.03,88.09,800,0
2017-12-04,21:30:00,88.12,88.12,88.07,88.11,3804,0
2017-12-04,21:35:00,88.1,88.1,87.98,88,1203,0
2017-12-04,21:40:00,88.02,88.1,88.02,88.0625,12213,0
2017-12-04,21:45:00,88.07,88.08,88.04,88.08,6101,0
2017-12-04,21:50:00,88.1,88.16,88.07,88.08,9609,0
2017-12-04,21:55:00,88.08,88.12,88.05,88.11,6007,0
2017-12-04,22:00:00,88.11,88.18,88.05,88.06,47250,0
2017-12-05,15:35:00,88.33,88.42,88.2,88.2,1781,0
2017-12-05,15:40:00,88.33,88.34,88.03,88.18,1400,0
2017-12-05,15:45:00,88.175,88.27,88.17,88.25,2500,0
2017-12-05,15:50:00,88.22,88.25,88.15,88.22,2100,0
2017-12-05,15:55:00,88.23,88.38,88.23,88.32,2400,0
2017-12-05,16:00:00,88.32,88.36,88.085,88.14,4100,0
2017-12-05,16:05:00,88.11,88.2,88.07,88.15,1900,0
2017-12-05,16:10:00,88.15,88.24,88.15,88.22,1500,0
2017-12-05,16:15:00,88.17,88.32,88.17,88.32,1000,0
2017-12-05,16:20:00,88.32,88.32,88.22,88.22,2845,0
2017-12-05,16:25:00,88.21,88.21,88.21,88.21,500,0
2017-12-05,16:30:00,88.16,88.16,87.91,87.91,1095,0
2017-12-05,16:35:00,87.93,88.03,87.89,88.01,3581,0
2017-12-05,16:40:00,88.11,88.11,88,88,1582,0
2017-12-05,16:45:00,88,88.08,88,88.08,400,0
2017-12-05,16:50:00,88.07,88.11,88.07,88.11,300,0
2017-12-05,16:55:00,88.115,88.115,88.02,88.02,1000,0
2017-12-05,17:00:00,88,88.17,88,88.11,1300,0
2017-12-05,17:05:00,88.19,88.22,88.17,88.17,1000,0
2017-12-05,17:10:00,88.24,88.35,88.225,88.31,1100,0
2017-12-05,17:15:00,88.37,88.42,88.34,88.34,1500,0
2017-12-05,17:20:00,88.4,88.5,88.375,88.5,1100,0
2017-12-05,17:25:00,88.54,88.59,88.54,88.58,300,0
2017-12-05,17:30:00,88.5793,88.67,88.575,88.67,1592,0
2017-12-05,17:35:00,88.66,88.66,88.47,88.52,2893,0
2017-12-05,17:40:00,88.51,88.61,88.51,88.61,1100,0
2017-12-05,17:45:00,88.57,88.59,88.51,88.58,1905,0
2017-12-05,17:50:00,88.59,88.67,88.59,88.62,1200,0
2017-12-05,17:55:00,88.68,88.77,88.655,88.77,1000,0
2017-12-05,18:00:00,88.81,88.85,88.69,88.69,1696,0
2017-12-05,18:05:00,88.64,88.64,88.59,88.59,1210,0
2017-12-05,18:10:00,88.62,88.6586,88.61,88.6586,579,0
2017-12-05,18:15:00,88.63,88.63,88.63,88.63,100,0
2017-12-05,18:20:00,88.6,88.63,88.57,88.57,920,0
2017-12-05,18:25:00,88.61,88.61,88.61,88.61,200,0
2017-12-05,18:30:00,88.61,88.65,88.61,88.64,700,0
2017-12-05,18:35:00,88.64,88.68,88.64,88.68,400,0
2017-12-05,18:40:00,88.67,88.7,88.66,88.7,1100,0
2017-12-05,18:45:00,88.66,88.72,88.66,88.72,610,0
2017-12-05,18:50:00,88.68,88.68,88.66,88.66,411,0
2017-12-05,18:55:00,88.69,88.74,88.67,88.74,2241,0
2017-12-05,19:00:00,88.7755,88.78,88.765,88.78,400,0
2017-12-05,19:05:00,88.79,88.91,88.79,88.91,787,0
2017-12-05,19:10:00,89,89,88.95,88.965,1500,0
2017-12-05,19:15:00,88.99,89.04,88.99,89.04,1833,0
2017-12-05,19:20:00,89.02,89.07,88.97,89.06,2200,0
2017-12-05,19:25:00,89.045,89.16,89.045,89.16,1900,0
2017-12-05,19:30:00,89.12,89.14,89.1,89.105,3012,0
2017-12-05,19:35:00,89.13,89.16,89.1,89.14,1000,0
2017-12-05,19:40:00,89.14,89.14,89.06,89.09,1300,0
2017-12-05,19:45:00,89.05,89.06,89.04,89.06,403,0
2017-12-05,19:50:00,89.04,89.04,88.97,89.01,2281,0
2017-12-05,19:55:00,89.05,89.08,89.0205,89.05,770,0
2017-12-05,20:00:00,89.05,89.05,89.03,89.03,500,0
2017-12-05,20:05:00,89.01,89.07,89.01,89.07,283,0
2017-12-05,20:10:00,89.07,89.1195,89.05,89.09,1131,0
2017-12-05,20:15:00,89.08,89.13,89.07,89.07,1502,0
2017-12-05,20:20:00,89.04,89.04,88.96,88.96,1550,0
2017-12-05,20:25:00,88.94,88.98,88.93,88.93,1378,0
2017-12-05,20:30:00,88.9508,89,88.9508,89,1799,0
2017-12-05,20:35:00,88.96,88.97,88.9,88.96,2647,0
2017-12-05,20:40:00,88.98,89.04,88.97,89.01,1311,0
2017-12-05,20:45:00,89.01,89.035,89.01,89.035,760,0
2017-12-05,20:50:00,89.01,89.1,88.97,89.09,4320,0
2017-12-05,20:55:00,89.08,89.08,88.99,88.99,1600,0
2017-12-05,21:00:00,88.97,88.995,88.94,88.99,1200,0
2017-12-05,21:05:00,88.985,88.985,88.93,88.935,1400,0
2017-12-05,21:10:00,88.95,89,88.945,88.97,2433,0
2017-12-05,21:15:00,88.95,88.99,88.93,88.99,3147,0
2017-12-05,21:20:00,89.02,89.02,88.96,88.96,2524,0
2017-12-05,21:25:00,88.98,89.04,88.97,89.04,2900,0
2017-12-05,21:30:00,89.04,89.135,89.04,89.135,4914,0
2017-12-05,21:35:00,89.16,89.16,89.1,89.13,3805,0
2017-12-05,21:40:00,89.12,89.16,89.03,89.03,6556,0
2017-12-05,21:45:00,89.03,89.1,89.01,89.05,5746,0
2017-12-05,21:50:00,89.04,89.1,89.01,89.08,8394,0
2017-12-05,21:55:00,89.08,89.09,88.99,89.06,6208,0
2017-12-05,22:00:00,89.04,89.11,88.94,89,62542,0
2017-12-06,15:35:00,88.94,88.94,88.12,88.12,889,0
2017-12-06,15:40:00,88.67,88.67,88.67,88.67,100,0
2017-12-06,15:45:00,88.675,88.89,88.54,88.73,3844,0
2017-12-06,15:50:00,88.87,88.88,88.65,88.816,1018,0
2017-12-06,15:55:00,88.815,88.815,88.77,88.77,600,0
2017-12-06,16:05:00,88.7,88.74,88.61,88.61,1912,0
2017-12-06,16:10:00,88.65,88.71,88.59,88.69,1600,0
2017-12-06,16:15:00,88.72,88.72,88.51,88.51,2979,0
2017-12-06,16:20:00,88.59,88.59,88.53,88.53,606,0
2017-12-06,16:25:00,88.46,88.51,88.46,88.51,1000,0
2017-12-06,16:30:00,88.53,88.575,88.51,88.54,1640,0
2017-12-06,16:35:00,88.505,88.56,88.5,88.5,2400,0
2017-12-06,16:40:00,88.5,88.53,88.36,88.45,2700,0
2017-12-06,16:45:00,88.46,88.5,88.45,88.45,600,0
2017-12-06,16:50:00,88.5,88.59,88.36,88.36,7983,0
2017-12-06,16:55:00,88.385,88.52,88.385,88.52,1250,0
2017-12-06,17:00:00,88.53,88.54,88.5,88.5,1500,0
2017-12-06,17:05:00,88.5,88.5,88.44,88.5,1082,0
2017-12-06,17:10:00,88.495,88.52,88.47,88.485,1331,0
2017-12-06,17:15:00,88.51,88.525,88.48,88.525,1400,0
2017-12-06,17:20:00,88.5,88.5,88.46,88.46,800,0
2017-12-06,17:25:00,88.47,88.51,88.47,88.51,2031,0
2017-12-06,17:40:00,88.515,88.515,88.49,88.49,700,0
2017-12-06,17:45:00,88.52,88.54,88.48,88.48,1573,0
2017-12-06,17:50:00,88.47,88.47,88.39,88.4,805,0
2017-12-06,17:55:00,88.37,88.395,88.37,88.395,200,0
2017-12-06,18:00:00,88.41,88.41,88.33,88.33,800,0
2017-12-06,18:05:00,88.3709,88.3709,88.31,88.35,1276,0
2017-12-06,18:10:00,88.26,88.26,88.26,88.26,100,0
2017-12-06,18:15:00,88.29,88.385,88.28,88.325,7400,0
2017-12-06,18:20:00,88.34,88.37,88.325,88.3495,600,0
2017-12-06,18:25:00,88.3,88.32,88.28,88.28,1000,0
2017-12-06,18:30:00,88.32,88.32,88.12,88.21,1500,0
2017-12-06,18:35:00,88.14,88.28,88.14,88.25,1450,0
2017-12-06,18:45:00,88.29,88.29,88.275,88.275,200,0
2017-12-06,18:50:00,88.28,88.345,88.28,88.345,2910,0
2017-12-06,18:55:00,88.29,88.36,88.28,88.28,3372,0
2017-12-06,19:00:00,88.28,88.28,88.18,88.18,541,0
2017-12-06,19:05:00,88.19,88.19,88.17,88.18,622,0
2017-12-06,19:10:00,88.15,88.2,88.125,88.2,700,0
2017-12-06,19:15:00,88.21,88.24,88.21,88.24,300,0
2017-12-06,19:20:00,88.26,88.28,88.21,88.27,1735,0
2017-12-06,19:25:00,88.32,88.34,88.31,88.34,2200,0
2017-12-06,19:30:00,88.394,88.43,88.394,88.43,350,0
2017-12-06,19:35:00,88.4,88.4,88.4,88.4,100,0
2017-12-06,19:40:00,88.469,88.54,88.469,88.5,1700,0
2017-12-06,19:45:00,88.52,88.52,88.49,88.495,403,0
2017-12-06,19:50:00,88.51,88.51,88.49,88.51,1206,0
2017-12-06,19:55:00,88.5,88.5,88.42,88.42,994,0
2017-12-06,20:00:00,88.41,88.42,88.37,88.37,600,0
2017-12-06,20:05:00,88.41,88.41,88.3,88.3,1305,0
2017-12-06,20:10:00,88.28,88.28,88.28,88.28,200,0
2017-12-06,20:15:00,88.28,88.28,88.24,88.275,400,0
2017-12-06,20:20:00,88.26,88.29,88.245,88.29,600,0
2017-12-06,20:25:00,88.26,88.295,88.26,88.295,700,0
2017-12-06,20:30:00,88.26,88.3,88.26,88.3,348,0
2017-12-06,20:35:00,88.26,88.285,88.26,88.26,300,0
2017-12-06,20:40:00,88.31,88.42,88.31,88.42,700,0
2017-12-06,20:45:00,88.4,88.44,88.4,88.44,1405,0
2017-12-06,20:50:00,88.44,88.47,88.44,88.44,700,0
2017-12-06,20:55:00,88.475,88.5,88.42,88.4282,6705,0
2017-12-06,21:00:00,88.4,88.405,88.34,88.36,1500,0
2017-12-06,21:05:00,88.36,88.38,88.28,88.28,1211,0
2017-12-06,21:10:00,88.31,88.34,88.25,88.26,1800,0
2017-12-06,21:15:00,88.26,88.29,88.26,88.26,600,0
2017-12-06,21:20:00,88.26,88.3,88.26,88.26,1477,0
2017-12-06,21:25:00,88.26,88.32,88.26,88.31,2400,0
2017-12-06,21:30:00,88.3,88.3,88.26,88.29,1500,0
2017-12-06,21:35:00,88.3,88.34,88.27,88.31,4949,0
2017-12-06,21:40:00,88.3,88.42,88.3,88.31,3719,0
2017-12-06,21:45:00,88.31,88.37,88.24,88.37,5201,0
2017-12-06,21:50:00,88.37,88.38,88.26,88.3,5906,0
2017-12-06,21:55:00,88.28,88.3,88.23,88.23,4303,0
2017-12-06,22:00:00,88.23,88.23,88.135,88.17,84186,0
