Date,Time,Open,High,Low,Close,Volume,OpenInt
2017-05-16,16:00:00,81.98,82.099,81.633,82.01,10032,0
2017-05-16,17:00:00,82.05,82.199,81.881,81.97,10668,0
2017-05-16,18:00:00,81.961,82.03,81.811,81.911,13330,0
2017-05-16,19:00:00,81.891,82.109,81.871,82.089,14866,0
2017-05-16,20:00:00,82.069,82.119,81.961,82.05,19849,0
2017-05-16,21:00:00,82.064,82.129,82.01,82.129,18134,0
2017-05-16,22:00:00,82.119,82.199,82.079,82.189,78992,0
2017-05-17,16:00:00,81.454,82,81.255,81.643,11989,0
2017-05-17,17:00:00,81.603,81.809,81.563,81.663,14803,0
2017-05-17,18:00:00,81.702,81.821,81.573,81.732,16320,0
2017-05-17,19:00:00,81.722,81.841,81.623,81.781,13741,0
2017-05-17,20:00:00,81.781,82.159,81.702,81.891,67781,0
2017-05-17,21:00:00,81.891,82,81.831,81.926,22828,0
2017-05-17,22:00:00,81.921,81.98,81.653,81.683,67555,0
2017-05-18,16:00:00,81.653,81.693,80.709,80.997,21950,0
2017-05-18,17:00:00,81.097,81.171,80.531,81.171,22455,0
2017-05-18,18:00:00,81.166,81.395,80.977,81.206,27637,0
2017-05-18,19:00:00,81.196,81.206,81.017,81.122,15537,0
2017-05-18,20:00:00,81.166,81.41,81.097,81.345,21355,0
2017-05-18,21:00:00,81.375,81.563,81.305,81.425,41927,0
2017-05-18,22:00:00,81.434,81.801,81.434,81.523,90540,0
2017-05-19,16:00:00,81.593,81.693,81.235,81.39,15332,0
2017-05-19,17:00:00,81.37,81.791,81.225,81.613,52629,0
2017-05-19,18:00:00,81.558,81.712,81.454,81.693,23052,0
2017-05-19,19:00:00,81.673,81.722,81.543,81.702,16502,0
2017-05-19,20:00:00,81.693,81.881,81.658,81.881,22746,0
2017-05-19,21:00:00,81.881,81.911,81.693,81.752,29556,0
2017-05-19,22:00:00,81.752,81.781,81.543,81.762,107876,0
2017-05-22,16:00:00,81.653,82.129,81.454,81.851,17719,0
2017-05-22,17:00:00,81.881,82.169,81.881,82.129,23563,0
2017-05-22,18:00:00,82.094,82.377,81.98,82.069,26021,0
2017-05-22,19:00:00,82.079,82.298,82.069,82.298,15514,0
2017-05-22,20:00:00,82.278,82.308,82.159,82.184,11208,0
2017-05-22,21:00:00,82.179,82.308,82.05,82.268,19681,0
2017-05-22,22:00:00,82.298,82.377,82.119,82.238,78851,0
2017-05-23,16:00:00,82.397,82.893,82.367,82.814,15161,0
2017-05-23,17:00:00,82.755,83.052,82.715,82.903,12577,0
2017-05-23,18:00:00,82.854,82.933,82.729,82.789,10749,0
2017-05-23,19:00:00,82.765,82.893,82.735,82.834,19284,0
2017-05-23,20:00:00,82.824,82.874,82.779,82.864,10751,0
2017-05-23,21:00:00,82.864,82.893,82.497,82.516,19837,0
2017-05-23,22:00:00,82.536,82.655,82.506,82.586,70281,0
2017-05-24,16:00:00,82.586,82.72,82.199,82.477,17543,0
2017-05-24,17:00:00,82.536,82.913,82.536,82.75,13265,0
2017-05-24,18:00:00,82.735,82.834,82.645,82.751,14076,0
2017-05-24,19:00:00,82.775,82.784,82.685,82.685,8413,0
2017-05-24,20:00:00,82.725,82.794,82.437,82.506,16110,0
2017-05-24,21:00:00,82.546,82.854,82.546,82.834,20407,0
2017-05-24,22:00:00,82.844,82.884,82.655,82.784,55237,0
2017-05-25,16:00:00,83.013,83.33,82.655,83.102,17245,0
2017-05-25,17:00:00,83.108,83.36,82.893,83.231,14594,0
2017-05-25,18:00:00,83.241,83.469,83.102,83.261,26709,0
2017-05-25,19:00:00,83.35,83.37,83.271,83.311,7004,0
2017-05-25,20:00:00,83.37,83.539,83.271,83.539,31766,0
2017-05-25,21:00:00,83.539,83.588,83.459,83.499,20640,0
2017-05-25,22:00:00,83.499,83.668,83.499,83.539,49484,0
2017-05-26,16:00:00,83.539,84.015,83.449,84.015,10773,0
2017-05-26,17:00:00,83.976,83.995,83.588,83.936,11180,0
2017-05-26,18:00:00,83.946,83.966,83.688,83.747,8809,0
2017-05-26,19:00:00,83.767,83.847,83.559,83.847,11099,0
2017-05-26,20:00:00,83.797,83.906,83.787,83.842,8064,0
2017-05-26,21:00:00,83.837,83.976,83.787,83.956,11612,0
2017-05-26,22:00:00,83.961,83.976,83.688,83.757,59196,0
2017-05-30,16:00:00,83.519,84.005,83.191,83.479,23228,0
2017-05-30,17:00:00,83.41,83.588,83.251,83.559,25360,0
2017-05-30,18:00:00,83.559,83.777,83.559,83.653,31350,0
2017-05-30,19:00:00,83.668,84.025,83.658,83.817,16183,0
2017-05-30,20:00:00,83.847,84.015,83.807,83.916,12976,0
2017-05-30,21:00:00,83.916,83.986,83.797,83.956,16765,0
2017-05-30,22:00:00,83.946,83.996,83.727,83.926,57987,0
2017-05-31,16:00:00,84.561,84.561,83.817,83.906,13627,0
2017-05-31,17:00:00,83.911,84.154,83.807,84.095,20172,0
2017-05-31,18:00:00,84.085,84.442,83.906,84.383,49046,0
2017-05-31,19:00:00,84.323,84.333,84.055,84.065,20350,0
2017-05-31,20:00:00,84.115,84.184,84.065,84.184,13187,0
2017-05-31,21:00:00,84.234,84.432,84.159,84.422,20575,0
2017-05-31,22:00:00,84.462,84.507,84.392,84.392,92132,0
2017-06-01,16:00:00,84.631,85.008,84.392,84.869,21846,0
2017-06-01,17:00:00,84.889,84.988,84.601,84.73,21267,0
2017-06-01,18:00:00,84.74,85.316,84.72,85.256,19656,0
2017-06-01,19:00:00,85.276,85.281,84.77,84.79,24190,0
2017-06-01,20:00:00,84.79,85.192,84.79,85.167,22953,0
2017-06-01,21:00:00,85.187,85.386,85.187,85.331,22655,0
2017-06-01,22:00:00,85.326,85.683,85.256,85.634,85472,0
2017-06-02,16:00:00,85.772,86.1,85.286,85.336,14962,0
2017-06-02,17:00:00,85.445,85.842,85.108,85.742,17271,0
2017-06-02,18:00:00,85.698,85.932,85.654,85.872,14195,0
2017-06-02,19:00:00,85.942,85.942,85.733,85.772,11229,0
2017-06-02,20:00:00,85.782,85.991,85.733,85.961,11497,0
2017-06-02,21:00:00,85.951,85.961,85.792,85.862,11571,0
2017-06-02,22:00:00,85.892,85.932,85.664,85.703,57630,0
2017-06-05,16:00:00,85.474,86.13,85.356,86.13,18842,0
2017-06-05,17:00:00,86.15,86.458,85.683,85.862,24650,0
2017-06-05,18:00:00,85.792,85.792,85.326,85.624,16474,0
2017-06-05,19:00:00,85.659,85.742,85.584,85.584,12709,0
2017-06-05,20:00:00,85.584,85.634,85.316,85.395,30349,0
2017-06-05,21:00:00,85.435,85.46,85.157,85.306,24227,0
2017-06-05,22:00:00,85.306,85.519,85.197,85.226,66403,0
2017-06-06,16:00:00,85.206,85.206,84.542,84.72,22639,0
2017-06-06,17:00:00,84.73,84.958,84.522,84.591,33349,0
2017-06-06,18:00:00,84.621,84.958,84.442,84.864,34655,0
2017-06-06,19:00:00,84.889,85.068,84.859,85.068,21994,0
2017-06-06,20:00:00,85.058,85.068,84.651,84.72,27053,0
2017-06-06,21:00:00,84.77,84.8,84.502,84.631,38605,0
2017-06-06,22:00:00,84.641,84.879,84.573,84.859,102957,0
2017-06-07,16:00:00,84.492,85.108,84.492,85.028,18527,0
2017-06-07,17:00:00,85.058,85.103,84.522,85.073,22931,0
2017-06-07,18:00:00,85.038,85.296,84.879,85.028,23874,0
2017-06-07,19:00:00,84.988,84.988,84.442,84.69,26072,0
2017-06-07,20:00:00,84.68,84.81,84.472,84.73,18414,0
2017-06-07,21:00:00,84.77,85.008,84.67,85.008,26781,0
2017-06-07,22:00:00,85.008,85.187,84.879,85.068,132554,0
2017-06-08,16:00:00,85.157,85.366,84.472,84.7,10000,0
2017-06-08,17:00:00,84.67,84.72,84.244,84.368,17521,0
2017-06-08,18:00:00,84.363,84.74,84.363,84.621,16492,0
2017-06-08,19:00:00,84.621,84.909,84.611,84.69,25232,0
2017-06-08,20:00:00,84.67,84.76,84.631,84.69,12529,0
2017-06-08,21:00:00,84.66,84.68,84.432,84.472,9807,0
2017-06-08,22:00:00,84.512,84.77,84.462,84.631,53274,0
2017-06-09,16:00:00,84.68,84.978,84.561,84.619,13030,0
2017-06-09,17:00:00,84.601,85.146,84.601,85.088,11618,0
2017-06-09,18:00:00,85.108,85.177,84.948,84.978,14979,0
2017-06-09,19:00:00,84.909,85.088,84.849,85.068,14552,0
2017-06-09,20:00:00,85.088,85.098,84.899,84.909,10490,0
2017-06-09,21:00:00,84.978,85.048,84.601,84.72,28376,0
2017-06-09,22:00:00,84.74,85.058,84.74,85.028,49637,0
2017-06-12,16:00:00,84.621,85.356,84.611,84.938,14055,0
2017-06-12,17:00:00,84.914,84.914,84.254,84.512,20760,0
2017-06-12,18:00:00,84.581,84.78,84.432,84.651,23606,0
2017-06-12,19:00:00,84.68,84.68,84.412,84.532,12925,0
2017-06-12,20:00:00,84.512,84.83,84.492,84.81,34360,0
2017-06-12,21:00:00,84.83,85.033,84.82,84.82,24097,0
2017-06-12,22:00:00,84.82,84.889,84.735,84.82,58874,0
2017-06-13,16:00:00,85.236,85.326,84.948,85.306,26117,0
2017-06-13,17:00:00,85.356,85.484,85.048,85.088,16496,0
2017-06-13,18:00:00,85.137,85.306,84.859,84.899,9803,0
2017-06-13,19:00:00,84.884,85.038,84.884,84.958,15790,0
2017-06-13,20:00:00,84.968,85.226,84.949,85.226,5847,0
2017-06-13,21:00:00,85.286,85.356,85.048,85.147,12757,0
2017-06-13,22:00:00,85.147,85.554,85.128,85.554,51448,0
2017-06-14,16:00:00,85.415,85.812,85.415,85.713,9998,0
2017-06-14,17:00:00,85.767,86.08,85.762,85.951,15090,0
2017-06-14,18:00:00,86.04,86.14,85.733,85.742,21495,0
2017-06-14,19:00:00,85.747,85.872,85.574,85.664,10066,0
2017-06-14,20:00:00,85.713,85.907,85.634,85.907,14738,0
2017-06-14,21:00:00,86.001,86.001,85.45,85.534,19117,0
2017-06-14,22:00:00,85.465,85.683,85.425,85.624,73890,0
2017-06-15,16:00:00,84.899,85.356,84.561,84.76,24862,0
2017-06-15,17:00:00,84.76,84.968,84.283,84.69,21454,0
2017-06-15,18:00:00,84.71,85.157,84.71,84.919,11805,0
2017-06-15,19:00:00,84.919,85.068,84.869,85.043,10921,0
2017-06-15,20:00:00,85.078,85.197,85.01,85.117,8993,0
2017-06-15,21:00:00,85.137,85.445,85.098,85.445,20773,0
2017-06-15,22:00:00,85.425,85.664,85.425,85.604,60325,0
2017-06-16,16:00:00,85.376,85.733,85.376,85.415,69366,0
2017-06-16,17:00:00,85.395,85.415,84.83,84.958,18393,0
2017-06-16,18:00:00,84.958,85.068,84.869,85.008,17569,0
2017-06-16,19:00:00,85.038,85.197,84.929,85.058,17444,0
2017-06-16,20:00:00,85.06,85.098,84.889,85.068,15517,0
2017-06-16,21:00:00,85.068,85.088,84.938,85.058,24011,0
2017-06-16,22:00:00,85.048,85.435,85.048,85.326,206579,0
2017-06-19,16:00:00,85.693,85.703,85.306,85.594,10252,0
2017-06-19,17:00:00,85.733,86.04,85.604,85.942,18486,0
2017-06-19,18:00:00,85.792,86.13,85.733,86.11,13654,0
2017-06-19,19:00:00,86.16,86.18,85.902,86.001,8794,0
2017-06-19,20:00:00,85.981,86.07,85.882,85.892,10939,0
2017-06-19,21:00:00,85.882,85.951,85.812,85.872,13239,0
2017-06-19,22:00:00,85.872,86.24,85.852,86.12,49710,0
2017-06-20,16:00:00,86.318,86.546,86.06,86.19,17891,0
2017-06-20,17:00:00,86.2,86.408,86.13,86.249,16925,0
2017-06-20,18:00:00,86.298,86.481,86.239,86.308,12283,0
2017-06-20,19:00:00,86.269,86.269,86.02,86.239,7153,0
2017-06-20,20:00:00,86.18,86.254,86.11,86.19,8307,0
2017-06-20,21:00:00,86.2,86.378,86.18,86.378,20424,0
2017-06-20,22:00:00,86.388,86.458,86.249,86.259,108789,0
2017-06-21,16:00:00,86.288,87.222,85.922,87.192,16540,0
2017-06-21,17:00:00,87.192,87.297,86.576,86.666,18184,0
2017-06-21,18:00:00,86.706,86.8,86.606,86.646,9096,0
2017-06-21,19:00:00,86.686,86.686,86.507,86.586,9032,0
2017-06-21,20:00:00,86.566,86.616,86.398,86.448,10882,0
2017-06-21,21:00:00,86.458,86.48,86.348,86.438,16330,0
2017-06-21,22:00:00,86.438,86.498,86.1,86.368,57626,0
2017-06-22,16:00:00,86.328,86.726,85.782,86.19,12644,0
2017-06-22,17:00:00,86.19,86.468,86.025,86.14,14533,0
2017-06-22,18:00:00,86.16,86.418,86.08,86.378,14806,0
2017-06-22,19:00:00,86.398,86.537,86.259,86.468,20360,0
2017-06-22,20:00:00,86.468,86.606,86.348,86.398,14394,0
2017-06-22,21:00:00,86.358,86.358,86.18,86.21,8885,0
2017-06-22,22:00:00,86.249,86.308,86.1,86.19,38476,0
2017-06-23,16:00:00,86.2,86.2,85.703,85.835,2189,0
2017-06-23,17:00:00,86.278,86.954,86.19,86.805,24343,0
2017-06-23,18:00:00,86.824,87.044,86.656,86.656,18331,0
2017-06-23,19:00:00,86.636,86.706,86.576,86.576,9512,0
2017-06-23,20:00:00,86.576,86.576,86.358,86.468,9236,0
2017-06-23,21:00:00,86.527,86.527,86.22,86.269,11129,0
2017-06-23,22:00:00,86.259,86.546,86.09,86.17,289931,0
2017-06-26,16:00:00,86.338,86.576,86.239,86.398,22651,0
2017-06-26,17:00:00,86.398,86.954,86.363,86.378,18099,0
2017-06-26,18:00:00,86.398,86.468,86.308,86.368,17650,0
2017-06-26,19:00:00,86.388,86.468,86.16,86.18,52791,0
2017-06-26,20:00:00,86.18,86.358,85.981,86.358,13443,0
2017-06-26,21:00:00,86.318,86.398,86.249,86.388,14317,0
2017-06-26,22:00:00,86.378,86.546,86.315,86.507,83873,0
2017-06-27,16:00:00,86.368,86.874,86.1,86.21,14606,0
2017-06-27,17:00:00,86.288,86.507,86.08,86.318,17699,0
2017-06-27,18:00:00,86.318,86.388,86.19,86.288,11072,0
2017-06-27,19:00:00,86.293,86.408,86.293,86.408,6117,0
2017-06-27,20:00:00,86.318,86.328,86.13,86.22,9952,0
2017-06-27,21:00:00,86.195,86.298,85.872,85.942,24216,0
2017-06-27,22:00:00,85.951,86.06,85.713,85.742,63174,0
2017-06-28,16:00:00,86.328,86.328,85.644,85.822,8868,0
2017-06-28,17:00:00,85.842,86.498,85.842,86.498,23820,0
2017-06-28,18:00:00,86.448,86.736,86.398,86.706,16712,0
2017-06-28,19:00:00,86.676,86.686,86.319,86.368,9228,0
2017-06-28,20:00:00,86.428,86.616,86.388,86.527,10511,0
2017-06-28,21:00:00,86.512,86.556,86.368,86.388,11965,0
2017-06-28,22:00:00,86.388,86.428,86.244,86.298,49762,0
2017-06-29,16:00:00,86.239,86.498,85.812,85.981,3902,0
2017-06-29,17:00:00,85.971,86.22,85.514,85.981,19636,0
2017-06-29,18:00:00,85.842,85.842,85.494,85.554,16120,0
2017-06-29,19:00:00,85.455,85.716,85.455,85.534,10312,0
2017-06-29,20:00:00,85.576,85.576,85.152,85.504,15448,0
2017-06-29,21:00:00,85.504,85.772,85.425,85.723,15409,0
2017-06-29,22:00:00,85.72,86.03,85.72,85.862,55622,0
2017-06-30,16:00:00,86.298,86.428,86.135,86.328,21971,0
2017-06-30,17:00:00,86.393,86.636,86.2,86.488,18040,0
2017-06-30,18:00:00,86.488,86.666,86.408,86.448,13251,0
2017-06-30,19:00:00,86.423,86.686,86.423,86.586,9415,0
2017-06-30,20:00:00,86.586,86.696,86.546,86.596,8507,0
2017-06-30,21:00:00,86.586,86.686,86.428,86.546,17853,0
2017-06-30,22:00:00,86.586,86.626,86.19,86.229,98321,0
2017-07-03,16:00:00,86.576,87.034,86.259,86.726,15828,0
2017-07-03,17:00:00,86.736,86.894,86.418,86.656,22051,0
2017-07-03,18:00:00,86.606,86.864,86.586,86.776,14556,0
2017-07-03,19:00:00,86.795,86.795,86.368,86.368,28302,0
2017-07-03,20:00:00,86.448,86.448,86.448,86.448,11314,0
2017-07-05,16:00:00,86.318,86.488,85.812,86.488,9684,0
2017-07-05,17:00:00,86.507,86.805,86.298,86.488,16104,0
2017-07-05,18:00:00,86.537,86.864,86.478,86.776,36085,0
2017-07-05,19:00:00,86.766,86.766,86.517,86.696,13219,0
2017-07-05,20:00:00,86.636,86.854,86.626,86.676,14679,0
2017-07-05,21:00:00,86.726,86.814,86.546,86.601,25857,0
2017-07-05,22:00:00,86.616,86.834,86.596,86.656,83312,0
2017-07-06,16:00:00,86.2,86.834,86.06,86.537,11338,0
2017-07-06,17:00:00,86.566,87.102,86.448,87.014,85587,0
2017-07-06,18:00:00,86.964,86.964,86.676,86.879,29377,0
2017-07-06,19:00:00,86.884,86.954,86.706,86.776,20080,0
2017-07-06,20:00:00,86.795,87.054,86.785,87.044,16031,0
2017-07-06,21:00:00,87.019,87.063,86.606,86.766,70945,0
2017-07-06,22:00:00,86.785,86.795,86.507,86.676,103139,0
2017-07-07,16:00:00,87.054,87.54,86.507,87.43,15136,0
2017-07-07,17:00:00,87.47,87.59,87.222,87.575,55702,0
2017-07-07,18:00:00,87.628,87.808,87.202,87.808,19545,0
2017-07-07,19:00:00,87.738,87.758,87.55,87.688,11108,0
2017-07-07,20:00:00,87.698,87.906,87.698,87.808,12089,0
2017-07-07,21:00:00,87.828,87.838,87.49,87.5,20904,0
2017-07-07,22:00:00,87.51,87.628,87.37,87.45,66307,0
2017-07-10,16:00:00,87.312,88.424,86.844,87.082,5980,0
2017-07-10,17:00:00,86.994,87.668,86.944,87.242,17245,0
2017-07-10,18:00:00,87.242,87.43,87.202,87.307,16016,0
2017-07-10,19:00:00,87.307,87.58,87.282,87.42,28966,0
2017-07-10,20:00:00,87.4,87.619,87.36,87.61,15487,0
2017-07-10,21:00:00,87.636,87.728,87.5,87.638,29794,0
2017-07-10,22:00:00,87.638,87.828,87.58,87.658,88035,0
2017-07-11,16:00:00,87.55,87.936,87.43,87.48,22928,0
2017-07-11,17:00:00,87.46,87.57,87.39,87.47,12127,0
2017-07-11,18:00:00,87.43,87.619,87.114,87.327,18711,0
2017-07-11,19:00:00,87.37,87.4,87.217,87.4,6346,0
2017-07-11,20:00:00,87.41,87.43,87.282,87.332,5648,0
2017-07-11,21:00:00,87.312,87.4,87.302,87.4,8374,0
2017-07-11,22:00:00,87.38,87.708,87.38,87.53,71377,0
2017-07-12,16:00:00,88.214,88.672,87.946,88.229,10745,0
2017-07-12,17:00:00,88.264,88.433,87.788,88.384,13353,0
2017-07-12,18:00:00,88.274,88.384,88.126,88.299,10828,0
2017-07-12,19:00:00,88.294,88.314,88.096,88.165,7907,0
2017-07-12,20:00:00,88.174,88.224,88.046,88.199,8504,0
2017-07-12,21:00:00,88.199,88.284,88.106,88.184,8735,0
2017-07-12,22:00:00,88.179,88.359,88.174,88.334,54709,0
2017-07-13,16:00:00,88.424,88.622,87.679,88.061,26971,0
2017-07-13,17:00:00,87.966,88.111,87.152,87.405,26452,0
2017-07-13,18:00:00,87.45,87.728,87.39,87.643,12384,0
2017-07-13,19:00:00,87.668,87.798,87.43,87.658,58459,0
2017-07-13,20:00:00,87.678,87.868,87.61,87.853,19017,0
2017-07-13,21:00:00,87.838,87.996,87.738,87.966,16733,0
2017-07-13,22:00:00,87.931,88.096,87.868,87.986,59724,0
2017-07-14,16:00:00,88.472,89.118,88.274,88.94,46712,0
2017-07-14,17:00:00,89.178,89.178,88.76,88.76,17471,0
2017-07-14,18:00:00,88.802,89.237,88.74,89.058,54729,0
2017-07-14,19:00:00,89.038,89.048,88.82,89.028,11394,0
2017-07-14,20:00:00,89.028,89.316,88.998,89.148,30655,0
2017-07-14,21:00:00,89.138,89.316,88.96,88.96,17961,0
2017-07-14,22:00:00,88.94,89.068,88.701,88.78,90347,0
2017-07-17,16:00:00,88.85,89.247,88.687,88.692,11008,0
2017-07-17,17:00:00,88.74,89.058,88.582,89.038,41201,0
2017-07-17,18:00:00,89.028,89.267,89.008,89.247,17185,0
2017-07-17,19:00:00,89.257,89.316,89.048,89.168,25551,0
2017-07-17,20:00:00,89.168,89.208,88.969,89.188,29513,0
2017-07-17,21:00:00,89.158,89.188,89.013,89.013,32426,0
2017-07-17,22:00:00,88.998,89.218,88.84,89.138,90075,0
2017-07-18,16:00:00,88.75,89.346,88.433,88.998,15615,0
2017-07-18,17:00:00,89.088,89.496,89.088,89.486,21061,0
2017-07-18,18:00:00,89.416,89.744,89.306,89.704,23207,0
2017-07-18,19:00:00,89.674,89.754,89.554,89.624,17361,0
2017-07-18,20:00:00,89.624,89.754,89.535,89.694,16456,0
2017-07-18,21:00:00,89.664,89.714,89.346,89.346,19963,0
2017-07-18,22:00:00,89.346,89.416,88.95,89.088,120402,0
2017-07-19,16:00:00,89.664,90.101,89.028,89.629,42700,0
2017-07-19,17:00:00,89.559,90.13,89.237,89.446,34902,0
2017-07-19,18:00:00,89.515,89.594,89.316,89.564,22932,0
2017-07-19,19:00:00,89.584,89.674,89.316,89.431,21249,0
2017-07-19,20:00:00,89.396,89.644,89.396,89.584,39605,0
2017-07-19,21:00:00,89.624,89.634,89.486,89.554,29652,0
2017-07-19,22:00:00,89.525,89.554,89.247,89.436,134796,0
2017-07-20,16:00:00,89.614,89.823,89.128,89.346,23716,0
2017-07-20,17:00:00,89.456,89.466,89.178,89.336,32662,0
2017-07-20,18:00:00,89.237,89.406,89.058,89.058,40587,0
2017-07-20,19:00:00,89.048,89.376,88.979,89.188,18047,0
2017-07-20,20:00:00,89.118,89.188,89.048,89.093,21402,0
2017-07-20,21:00:00,89.108,89.168,88.88,89.048,26407,0
2017-07-20,22:00:00,89.028,89.108,88.89,89.048,78129,0
2017-07-21,16:00:00,89.336,89.336,88.374,88.721,19211,0
2017-07-21,17:00:00,88.672,88.672,88.354,88.542,22216,0
2017-07-21,18:00:00,88.582,88.74,88.433,88.662,20443,0
2017-07-21,19:00:00,88.711,88.75,88.522,88.637,19556,0
2017-07-21,20:00:00,88.642,88.667,88.492,88.602,32900,0
2017-07-21,21:00:00,88.597,88.82,88.542,88.721,25501,0
2017-07-21,22:00:00,88.74,88.96,88.582,88.86,83766,0
2017-07-24,16:00:00,88.611,89.189,88.262,89.179,21252,0
2017-07-24,17:00:00,88.969,89.079,88.571,88.7,24841,0
2017-07-24,18:00:00,88.73,89.019,88.661,88.95,24750,0
2017-07-24,19:00:00,88.96,89.029,88.87,88.955,15671,0
2017-07-24,20:00:00,88.94,88.989,88.661,88.78,86265,0
2017-07-24,21:00:00,88.8,89.009,88.7,88.989,80366,0
2017-07-24,22:00:00,88.989,89.258,88.94,89.129,84988,0
2017-07-25,16:00:00,89.627,89.627,88.75,88.91,28867,0
2017-07-25,17:00:00,88.969,89.169,88.75,88.95,65695,0
2017-07-25,18:00:00,88.96,89.129,88.92,89.089,29465,0
2017-07-25,19:00:00,89.109,89.109,88.382,88.382,70868,0
2017-07-25,20:00:00,88.441,88.631,88.332,88.581,21691,0
2017-07-25,21:00:00,88.611,88.75,88.392,88.441,50699,0
2017-07-25,22:00:00,88.427,88.441,88.187,88.362,245178,0
2017-07-26,16:00:00,88.451,88.641,88.033,88.153,10582,0
2017-07-26,17:00:00,88.143,88.362,87.963,87.993,29139,0
2017-07-26,18:00:00,87.953,88.123,87.923,87.953,30156,0
2017-07-26,19:00:00,87.973,88.088,87.923,88.088,20559,0
2017-07-26,20:00:00,88.063,88.123,87.943,87.943,12022,0
2017-07-26,21:00:00,87.973,88.033,87.854,87.854,41066,0
2017-07-26,22:00:00,87.834,87.913,87.664,87.734,110617,0
2017-07-27,16:00:00,88.172,88.172,87.276,87.276,12665,0
2017-07-27,17:00:00,87.226,87.365,86.937,87.086,31796,0
2017-07-27,18:00:00,87.166,87.485,87.047,87.236,23480,0
2017-07-27,19:00:00,87.241,87.595,87.241,87.326,36209,0
2017-07-27,20:00:00,87.316,87.455,87.106,87.326,34448,0
2017-07-27,21:00:00,87.306,87.425,87.146,87.226,29910,0
2017-07-27,22:00:00,87.226,87.734,87.126,87.674,105046,0
2017-07-28,16:00:00,83.091,83.39,80.531,81.208,79845,0
2017-07-28,17:00:00,81.208,82.942,81.004,82.643,127712,0
2017-07-28,18:00:00,82.633,82.962,82.354,82.753,70672,0
2017-07-28,19:00:00,82.753,82.962,82.484,82.892,56928,0
2017-07-28,20:00:00,82.902,83.081,82.643,82.713,65370,0
2017-07-28,21:00:00,82.703,83.096,82.543,82.773,107738,0
2017-07-28,22:00:00,82.768,82.768,81.856,82.005,309333,0
2017-07-31,16:00:00,81.936,83.191,81.667,81.667,67180,0
2017-07-31,17:00:00,81.706,81.916,81.198,81.298,44121,0
2017-07-31,18:00:00,81.268,81.442,80.989,81.268,52123,0
2017-07-31,19:00:00,81.268,81.368,80.75,80.979,31532,0
2017-07-31,20:00:00,80.969,80.989,80.603,80.78,44252,0
2017-07-31,21:00:00,80.77,80.78,80.451,80.471,51622,0
2017-07-31,22:00:00,80.471,80.73,80.391,80.63,571278,0
2017-08-01,16:00:00,80.7,81.993,80.68,81.846,31060,0
2017-08-01,17:00:00,81.906,82.326,81.786,82.284,43877,0
2017-08-01,18:00:00,82.235,82.364,81.966,82.354,51619,0
2017-08-01,19:00:00,82.334,82.484,82.175,82.205,27097,0
2017-08-01,20:00:00,82.2,82.225,81.985,82.035,69672,0
2017-08-01,21:00:00,82.085,82.125,81.946,82.115,31881,0
2017-08-01,22:00:00,82.135,82.304,82.125,82.205,137411,0
2017-08-02,16:00:00,82.235,82.444,81.447,81.447,7266,0
2017-08-02,17:00:00,81.452,81.597,80.939,81.019,18939,0
2017-08-02,18:00:00,80.979,81.432,80.929,81.418,12936,0
2017-08-02,19:00:00,81.418,81.697,81.368,81.547,18553,0
2017-08-02,20:00:00,81.567,81.856,81.537,81.846,16515,0
2017-08-02,21:00:00,81.836,82.035,81.786,81.985,89527,0
2017-08-02,22:00:00,81.946,82.112,81.816,81.946,130164,0
2017-08-03,16:00:00,81.995,81.995,81.517,81.761,6215,0
2017-08-03,17:00:00,81.706,81.786,81.537,81.637,19610,0
2017-08-03,18:00:00,81.637,81.985,81.527,81.985,28627,0
2017-08-03,19:00:00,81.946,81.946,81.761,81.886,14292,0
2017-08-03,20:00:00,81.856,81.995,81.781,81.936,24341,0
2017-08-03,21:00:00,81.926,82.115,81.816,81.841,22679,0
2017-08-03,22:00:00,81.856,81.995,81.856,81.946,169060,0
2017-08-04,16:00:00,82.195,82.235,81.946,82.085,6017,0
2017-08-04,17:00:00,82.065,82.115,81.916,81.936,7192,0
2017-08-04,18:00:00,82.045,82.155,81.956,81.975,9868,0
2017-08-04,19:00:00,82.015,82.474,81.985,82.314,17304,0
2017-08-04,20:00:00,82.254,82.344,82.175,82.195,10171,0
2017-08-04,21:00:00,82.195,82.235,81.975,81.975,10679,0
2017-08-04,22:00:00,81.975,82.095,81.866,82.055,77590,0
2017-08-07,16:00:00,82.244,82.563,82.215,82.314,5808,0
2017-08-07,17:00:00,82.304,82.374,82.085,82.155,14150,0
2017-08-07,18:00:00,82.165,82.494,82.095,82.389,16918,0
2017-08-07,19:00:00,82.414,82.643,82.344,82.523,11218,0
2017-08-07,20:00:00,82.523,82.553,82.414,82.444,8850,0
2017-08-07,21:00:00,82.473,82.513,82.374,82.414,10756,0
2017-08-07,22:00:00,82.404,82.533,82.374,82.434,65907,0
2017-08-08,16:00:00,82.324,82.454,82.254,82.454,4469,0
2017-08-08,17:00:00,82.314,82.434,82.095,82.374,18713,0
2017-08-08,18:00:00,82.434,82.583,82.244,82.484,8307,0
2017-08-08,19:00:00,82.494,82.623,82.284,82.334,10833,0
2017-08-08,20:00:00,82.284,82.374,82.175,82.374,9927,0
2017-08-08,21:00:00,82.379,82.454,82.284,82.394,11269,0
2017-08-08,22:00:00,82.364,82.464,82.254,82.434,66464,0
2017-08-09,16:00:00,82.195,82.344,81.936,82.344,6042,0
2017-08-09,17:00:00,82.404,82.494,82.155,82.205,12323,0
2017-08-09,18:00:00,82.19,82.494,82.115,82.254,25645,0
2017-08-09,19:00:00,82.195,82.404,82.195,82.22,11441,0
2017-08-09,20:00:00,82.195,82.205,82.095,82.135,16693,0
2017-08-09,21:00:00,82.145,82.215,81.975,82.005,23272,0
2017-08-09,22:00:00,81.985,82.205,81.985,82.175,55900,0
2017-08-10,16:00:00,81.926,82.434,81.926,81.995,11984,0
2017-08-10,17:00:00,81.956,82.145,81.846,81.886,34758,0
2017-08-10,18:00:00,81.866,81.876,81.477,81.642,23950,0
2017-08-10,19:00:00,81.557,81.701,81.238,81.697,29167,0
2017-08-10,20:00:00,81.687,81.906,81.447,81.736,14433,0
2017-08-10,21:00:00,81.726,81.916,81.675,81.816,16399,0
2017-08-10,22:00:00,81.781,81.781,81.178,81.208,93185,0
2017-08-11,16:00:00,82.045,82.045,81.104,81.258,28145,0
2017-08-11,17:00:00,81.368,82.015,81.263,81.876,11061,0
2017-08-11,18:00:00,81.926,81.966,81.657,81.946,22327,0
2017-08-11,19:00:00,81.846,82.025,81.806,81.866,22563,0
2017-08-11,20:00:00,81.866,82.045,81.826,81.906,16361,0
2017-08-11,21:00:00,81.941,81.995,81.816,81.816,15589,0
2017-08-11,22:00:00,81.816,81.926,81.796,81.836,56658,0
2017-08-14,16:00:00,82.324,82.603,82.205,82.533,4960,0
2017-08-14,17:00:00,82.533,82.693,82.344,82.563,17433,0
2017-08-14,18:00:00,82.563,82.693,82.513,82.623,11067,0
2017-08-14,19:00:00,82.613,82.693,82.553,82.573,12417,0
2017-08-14,20:00:00,82.563,82.648,82.533,82.553,8065,0
2017-08-14,21:00:00,82.583,82.663,82.563,82.623,9001,0
2017-08-14,22:00:00,82.623,82.653,82.553,82.603,47828,0
2017-08-15,16:00:00,82.434,82.653,82.244,82.518,9715,0
2017-08-15,17:00:00,82.573,82.693,82.404,82.573,17344,0
2017-08-15,18:00:00,82.563,82.633,82.354,82.354,10061,0
2017-08-15,19:00:00,82.334,82.593,82.274,82.523,13207,0
2017-08-15,20:00:00,82.461,82.461,82.274,82.334,8009,0
2017-08-15,21:00:00,82.384,82.474,82.384,82.384,10536,0
2017-08-15,22:00:00,82.384,82.543,82.334,82.444,86538,0
2017-08-16,16:00:00,82.553,82.693,82.394,82.573,42324,0
2017-08-16,17:00:00,82.633,83.121,82.623,82.892,23631,0
2017-08-16,18:00:00,82.942,83.101,82.872,83.051,15789,0
2017-08-16,19:00:00,83.071,83.52,83.071,83.281,29808,0
2017-08-16,20:00:00,83.281,83.291,83.091,83.191,21161,0
2017-08-16,21:00:00,83.161,83.231,83.076,83.151,9316,0
2017-08-16,22:00:00,83.161,83.251,83.051,83.241,65217,0
2017-08-17,16:00:00,82.962,83.211,82.494,82.593,12492,0
2017-08-17,17:00:00,82.504,82.723,82.195,82.195,25490,0
2017-08-17,18:00:00,82.205,82.304,82.065,82.254,24003,0
2017-08-17,19:00:00,82.284,82.404,82.075,82.284,15549,0
2017-08-17,20:00:00,82.225,82.334,82.135,82.155,11180,0
2017-08-17,21:00:00,82.175,82.235,81.975,82.165,16249,0
2017-08-17,22:00:00,82.16,82.235,81.816,81.826,70959,0
2017-08-18,16:00:00,81.706,81.706,81.339,81.487,8357,0
2017-08-18,17:00:00,81.547,81.836,81.527,81.706,8314,0
2017-08-18,18:00:00,81.711,81.796,81.497,81.647,11738,0
2017-08-18,19:00:00,81.677,81.966,81.647,81.786,11227,0
2017-08-18,20:00:00,81.786,81.816,81.627,81.627,8655,0
2017-08-18,21:00:00,81.617,81.953,81.609,81.906,15208,0
2017-08-18,22:00:00,81.896,81.995,81.826,81.846,73202,0
2017-08-21,16:00:00,81.756,82.175,81.687,81.711,4788,0
2017-08-21,17:00:00,81.716,81.786,81.507,81.697,9238,0
2017-08-21,18:00:00,81.677,81.677,81.358,81.497,6822,0
2017-08-21,19:00:00,81.497,81.507,81.378,81.398,5136,0
2017-08-21,20:00:00,81.368,81.378,81.149,81.248,8898,0
2017-08-21,21:00:00,81.268,81.318,81.039,81.228,8663,0
2017-08-21,22:00:00,81.221,81.358,81.099,81.188,38240,0
2017-08-22,16:00:00,81.677,81.926,81.428,81.428,8079,0
2017-08-22,17:00:00,81.487,81.796,81.467,81.687,11980,0
2017-08-22,18:00:00,81.66,81.926,81.537,81.806,17606,0
2017-08-22,19:00:00,81.756,81.766,81.587,81.644,11963,0
2017-08-22,20:00:00,81.647,81.716,81.497,81.547,10234,0
2017-08-22,21:00:00,81.567,81.697,81.437,81.682,15504,0
2017-08-22,22:00:00,81.667,81.985,81.647,81.816,77570,0
2017-08-23,16:00:00,81.447,82.225,81.358,81.437,10231,0
2017-08-23,17:00:00,81.487,81.816,81.487,81.567,11794,0
2017-08-23,18:00:00,81.537,81.537,81.188,81.428,16526,0
2017-08-23,19:00:00,81.428,81.557,81.398,81.517,17717,0
2017-08-23,20:00:00,81.527,81.697,81.398,81.428,13928,0
2017-08-23,21:00:00,81.418,81.637,81.398,81.537,16286,0
2017-08-23,22:00:00,81.557,81.637,81.238,81.308,58889,0
2017-08-24,16:00:00,81.428,81.756,81.168,81.263,10372,0
2017-08-24,17:00:00,81.149,81.238,80.83,80.999,13863,0
2017-08-24,18:00:00,80.999,81.059,80.85,81.059,26349,0
2017-08-24,19:00:00,81.089,81.129,81.039,81.039,5973,0
2017-08-24,20:00:00,81.039,81.119,80.989,81.018,5879,0
2017-08-24,21:00:00,81.009,81.009,80.855,80.939,21701,0
2017-08-24,22:00:00,80.939,80.984,80.65,80.78,63893,0
2017-08-25,16:00:00,81.198,81.956,81.198,81.816,31489,0
2017-08-25,17:00:00,81.776,82.02,81.607,81.716,50090,0
2017-08-25,18:00:00,81.816,81.921,81.706,81.816,15570,0
2017-08-25,19:00:00,81.876,82.215,81.866,82.145,25002,0
2017-08-25,20:00:00,82.13,82.165,81.906,82.155,27606,0
2017-08-25,21:00:00,82.185,82.379,82.085,82.304,33983,0
2017-08-25,22:00:00,82.344,82.424,82.055,82.085,95627,0
2017-08-28,16:00:00,82.344,82.474,81.687,81.736,8960,0
2017-08-28,17:00:00,81.697,81.726,81.428,81.428,12960,0
2017-08-28,18:00:00,81.398,81.497,81.378,81.497,9471,0
2017-08-28,19:00:00,81.557,81.567,81.188,81.338,12685,0
2017-08-28,20:00:00,81.378,81.467,81.338,81.447,38936,0
2017-08-28,21:00:00,81.447,81.627,81.388,81.547,29840,0
2017-08-28,22:00:00,81.557,81.647,81.343,81.557,79258,0
2017-08-29,16:00:00,81.597,81.597,81.268,81.537,62589,0
2017-08-29,17:00:00,81.517,81.667,81.487,81.642,18784,0
2017-08-29,18:00:00,81.647,81.667,81.577,81.627,14189,0
2017-08-29,19:00:00,81.622,81.687,81.607,81.647,12179,0
2017-08-29,20:00:00,81.617,81.776,81.562,81.751,11594,0
2017-08-29,21:00:00,81.756,81.796,81.687,81.687,16480,0
2017-08-29,22:00:00,81.697,81.796,81.627,81.697,57129,0
2017-08-30,16:00:00,81.836,81.836,81.617,81.617,7860,0
2017-08-30,17:00:00,81.597,81.756,81.597,81.697,20980,0
2017-08-30,18:00:00,81.697,81.766,81.627,81.667,25347,0
2017-08-30,19:00:00,81.716,82.235,81.677,82.235,20826,0
2017-08-30,20:00:00,82.235,82.643,82.235,82.643,14756,0
2017-08-30,21:00:00,82.613,82.862,82.573,82.862,14735,0
2017-08-30,22:00:00,82.842,82.872,82.563,82.663,65337,0
2017-08-31,16:00:00,82.872,83.131,82.633,83.061,9515,0
2017-08-31,17:00:00,83.061,83.091,82.543,82.753,24396,0
2017-08-31,18:00:00,82.713,82.942,82.414,82.907,22341,0
2017-08-31,19:00:00,82.902,82.902,82.533,82.713,29630,0
2017-08-31,20:00:00,82.713,82.862,82.693,82.763,24176,0
2017-08-31,21:00:00,82.763,83.191,82.763,83.191,14818,0
2017-08-31,22:00:00,83.211,83.35,83.141,83.301,95543,0
2017-09-01,16:00:00,83.49,83.679,83.43,83.679,11128,0
2017-09-01,17:00:00,83.689,83.689,83.44,83.48,16972,0
2017-09-01,18:00:00,83.48,83.48,83.111,83.221,14560,0
2017-09-01,19:00:00,83.251,83.32,83.131,83.315,11793,0
2017-09-01,20:00:00,83.301,83.46,83.251,83.281,12838,0
2017-09-01,21:00:00,83.301,83.46,83.206,83.45,14738,0
2017-09-01,22:00:00,83.46,83.689,83.46,83.57,56276,0
2017-09-05,16:00:00,83.41,83.769,83.066,83.719,9175,0
2017-09-05,17:00:00,83.858,83.858,83.241,83.41,22358,0
2017-09-05,18:00:00,83.39,83.48,83.081,83.4,16333,0
2017-09-05,19:00:00,83.41,83.41,82.942,83.017,15638,0
2017-09-05,20:00:00,83.012,83.141,82.872,83.131,12405,0
2017-09-05,21:00:00,83.121,83.41,83.121,83.201,18569,0
2017-09-05,22:00:00,83.211,83.281,82.892,82.942,60973,0
2017-09-06,16:00:00,83.022,83.022,82.573,82.683,12159,0
2017-09-06,17:00:00,82.703,83.022,82.583,82.743,24415,0
2017-09-06,18:00:00,82.723,82.758,82.284,82.424,14297,0
2017-09-06,19:00:00,82.454,82.546,82.235,82.269,13176,0
2017-09-06,20:00:00,82.273,82.469,82.225,82.235,11634,0
2017-09-06,21:00:00,82.235,82.464,82.205,82.364,23879,0
2017-09-06,22:00:00,82.384,82.593,82.185,82.543,106289,0
2017-09-07,16:00:00,82.653,82.703,82.14,82.14,6433,0
2017-09-07,17:00:00,82.21,82.663,82.015,82.563,19822,0
2017-09-07,18:00:00,82.499,83.032,82.244,82.479,25481,0
2017-09-07,19:00:00,82.523,82.773,82.444,82.633,19569,0
2017-09-07,20:00:00,82.673,82.842,82.583,82.815,20868,0
2017-09-07,21:00:00,82.822,83.037,82.782,82.872,22402,0
2017-09-07,22:00:00,82.892,83.43,82.713,83.301,83347,0
2017-09-08,16:00:00,83.191,83.191,82.464,82.663,8926,0
2017-09-08,17:00:00,82.683,83.51,82.623,83.48,14621,0
2017-09-08,18:00:00,83.45,83.649,83.43,83.51,11491,0
2017-09-08,19:00:00,83.45,83.679,83.4,83.659,12267,0
2017-09-08,20:00:00,83.659,83.868,83.629,83.649,28080,0
2017-09-08,21:00:00,83.58,83.739,83.49,83.649,12318,0
2017-09-08,22:00:00,83.629,83.699,83.42,83.51,76179,0
2017-09-11,16:00:00,84.008,84.855,83.689,84.526,12043,0
2017-09-11,17:00:00,84.526,84.715,84.317,84.426,16519,0
2017-09-11,18:00:00,84.466,84.596,84.406,84.506,18449,0
2017-09-11,19:00:00,84.496,84.516,84.377,84.456,14020,0
2017-09-11,20:00:00,84.406,84.705,84.406,84.526,16178,0
2017-09-11,21:00:00,84.536,84.655,84.496,84.496,13711,0
2017-09-11,22:00:00,84.499,84.815,84.499,84.805,71311,0
2017-09-12,16:00:00,84.616,85.124,84.616,84.815,9090,0
2017-09-12,17:00:00,84.815,84.835,84.426,84.444,12671,0
2017-09-12,18:00:00,84.426,84.586,84.396,84.546,15335,0
2017-09-12,19:00:00,84.536,84.825,84.426,84.705,11531,0
2017-09-12,20:00:00,84.706,84.755,84.526,84.735,10420,0
2017-09-12,21:00:00,84.735,84.775,84.586,84.695,53069,0
2017-09-12,22:00:00,84.715,84.895,84.656,84.885,71276,0
2017-09-13,16:00:00,84.297,84.715,84.058,84.167,18666,0
2017-09-13,17:00:00,84.147,84.367,84.088,84.277,27492,0
2017-09-13,18:00:00,84.277,84.297,84.132,84.137,12271,0
2017-09-13,19:00:00,84.187,84.377,84.147,84.269,20188,0
2017-09-13,20:00:00,84.269,84.322,84.227,84.287,8388,0
2017-09-13,21:00:00,84.287,84.725,84.247,84.646,15049,0
2017-09-13,22:00:00,84.606,84.656,84.147,84.187,91722,0
2017-09-14,16:00:00,84.197,84.282,84.008,84.227,7261,0
2017-09-14,17:00:00,84.227,84.267,83.849,84.103,14908,0
2017-09-14,18:00:00,84.137,84.347,84.038,84.187,14354,0
2017-09-14,19:00:00,84.277,84.586,84.277,84.586,8192,0
2017-09-14,20:00:00,84.586,84.745,84.561,84.735,9557,0
2017-09-14,21:00:00,84.745,84.785,84.586,84.626,12765,0
2017-09-14,22:00:00,84.616,84.675,84.486,84.556,64210,0
2017-09-15,16:00:00,84.426,84.636,84.396,84.446,38202,0
2017-09-15,17:00:00,84.387,84.426,84.167,84.297,11717,0
2017-09-15,18:00:00,84.307,84.327,84.197,84.237,14027,0
2017-09-15,19:00:00,84.247,84.603,84.187,84.396,27326,0
2017-09-15,20:00:00,84.396,84.596,84.396,84.556,9671,0
2017-09-15,21:00:00,84.566,84.616,84.526,84.566,10259,0
2017-09-15,22:00:00,84.536,84.536,84.297,84.396,212149,0
2017-09-18,16:00:00,84.656,84.785,84.426,84.516,11994,0
2017-09-18,17:00:00,84.511,84.934,84.511,84.934,15932,0
2017-09-18,18:00:00,84.934,85.104,84.901,84.994,6003,0
2017-09-18,19:00:00,85.004,85.044,84.925,84.984,10917,0
2017-09-18,20:00:00,84.989,85.174,84.885,85.164,11004,0
2017-09-18,21:00:00,85.159,85.303,85.004,85.273,24171,0
2017-09-18,22:00:00,85.263,85.353,85.074,85.124,77536,0
2017-09-19,16:00:00,85.114,85.273,84.715,84.895,9337,0
2017-09-19,17:00:00,84.895,85.044,84.636,84.875,18927,0
2017-09-19,18:00:00,84.875,84.974,84.705,84.895,11937,0
2017-09-19,19:00:00,84.895,85.024,84.815,84.925,8588,0
2017-09-19,20:00:00,84.925,85.114,84.85,85.074,16286,0
2017-09-19,21:00:00,85.074,85.423,85.074,85.313,31970,0
2017-09-19,22:00:00,85.293,85.443,85.194,85.243,117974,0
2017-09-20,16:00:00,85.343,85.542,85.323,85.495,8757,0
2017-09-20,17:00:00,85.572,85.702,85.343,85.552,8719,0
2017-09-20,18:00:00,85.542,85.921,85.472,85.891,7136,0
2017-09-20,19:00:00,85.871,85.911,85.637,85.682,11635,0
2017-09-20,20:00:00,85.702,85.741,85.507,85.692,8803,0
2017-09-20,21:00:00,85.702,85.831,85.482,85.751,15053,0
2017-09-20,22:00:00,85.761,85.831,85.662,85.801,80884,0
2017-09-21,16:00:00,85.761,85.861,85.55,85.851,5162,0
2017-09-21,17:00:00,85.901,86.2,85.861,86.185,13748,0
2017-09-21,18:00:00,86.18,86.399,86.07,86.349,19634,0
2017-09-21,19:00:00,86.339,86.439,86.14,86.15,15010,0
2017-09-21,20:00:00,86.17,86.18,85.941,85.981,19336,0
2017-09-21,21:00:00,85.99,86.04,85.861,86.02,20805,0
2017-09-21,22:00:00,86.03,86.07,85.791,85.831,64598,0
2017-09-22,16:00:00,85.881,85.951,85.512,85.582,6952,0
2017-09-22,17:00:00,85.522,85.582,85.283,85.303,19710,0
2017-09-22,18:00:00,85.323,85.423,85.263,85.323,5817,0
2017-09-22,19:00:00,85.393,85.522,85.343,85.353,45605,0
2017-09-22,20:00:00,85.354,85.477,85.268,85.433,13889,0
2017-09-22,21:00:00,85.413,85.423,85.134,85.423,16988,0
2017-09-22,22:00:00,85.408,85.482,85.393,85.403,53749,0
2017-09-25,16:00:00,85.433,85.512,85.034,85.054,8677,0
2017-09-25,17:00:00,85.064,85.672,85.064,85.353,8693,0
2017-09-25,18:00:00,85.253,85.562,85.124,85.562,12420,0
2017-09-25,19:00:00,85.562,86.289,85.542,86.02,30137,0
2017-09-25,20:00:00,86.02,86.2,85.981,86.2,20740,0
2017-09-25,21:00:00,86.2,86.519,86.125,86.509,26642,0
2017-09-25,22:00:00,86.459,86.568,86.329,86.439,57815,0
2017-09-26,16:00:00,86.778,86.997,86.633,86.748,19996,0
2017-09-26,17:00:00,86.768,86.768,86.162,86.314,29577,0
2017-09-26,18:00:00,86.339,86.479,86.19,86.19,9720,0
2017-09-26,19:00:00,86.19,86.384,86.13,86.22,10734,0
2017-09-26,20:00:00,86.279,86.419,86.27,86.399,7193,0
2017-09-26,21:00:00,86.399,86.539,86.299,86.509,13204,0
2017-09-26,22:00:00,86.529,86.598,86.409,86.429,70699,0
2017-09-27,16:00:00,86.479,86.608,85.971,86.27,7443,0
2017-09-27,17:00:00,86.27,86.449,85.971,86.02,20119,0
2017-09-27,18:00:00,86.045,86.18,85.891,86.18,44234,0
2017-09-27,19:00:00,86.23,86.309,85.971,86.115,19134,0
2017-09-27,20:00:00,86.11,86.205,85.978,86.08,32494,0
2017-09-27,21:00:00,86.1,86.25,86.05,86.128,20049,0
2017-09-27,22:00:00,86.16,86.359,86.14,86.22,68211,0
2017-09-28,16:00:00,86.04,86.648,85.771,86.26,5457,0
2017-09-28,17:00:00,86.215,86.509,86.09,86.409,11317,0
2017-09-28,18:00:00,86.429,87.057,86.369,86.967,12299,0
2017-09-28,19:00:00,86.987,87.176,86.837,87.067,9743,0
2017-09-28,20:00:00,87.057,87.186,86.957,87.096,11406,0
2017-09-28,21:00:00,87.077,87.086,86.758,86.887,13306,0
2017-09-28,22:00:00,86.887,86.887,86.658,86.758,121800,0
2017-09-29,16:00:00,86.698,86.698,86.21,86.469,8180,0
2017-09-29,17:00:00,86.449,86.807,86.359,86.668,11704,0
2017-09-29,18:00:00,86.558,86.558,86.379,86.469,8494,0
2017-09-29,19:00:00,86.479,86.479,86.11,86.11,11260,0
2017-09-29,20:00:00,86.09,86.339,86.001,86.314,10648,0
2017-09-29,21:00:00,86.289,86.309,86.18,86.294,8651,0
2017-09-29,22:00:00,86.294,86.344,85.981,85.991,113970,0
2017-10-02,16:00:00,86.489,87.206,86.22,86.947,11240,0
2017-10-02,17:00:00,86.912,87.246,86.839,87.047,18475,0
2017-10-02,18:00:00,87.037,87.156,86.847,86.937,15173,0
2017-10-02,19:00:00,86.947,87.375,86.917,87.355,30732,0
2017-10-02,20:00:00,87.385,87.425,87.077,87.146,16973,0
2017-10-02,21:00:00,87.216,87.405,87.146,87.405,12270,0
2017-10-02,22:00:00,87.425,87.644,87.326,87.555,96695,0
2017-10-03,16:00:00,87.575,88.113,87.575,87.834,9315,0
2017-10-03,17:00:00,87.864,88.023,87.814,87.993,11715,0
2017-10-03,18:00:00,87.963,87.963,87.734,87.844,22364,0
2017-10-03,19:00:00,87.844,87.903,87.774,87.864,18718,0
2017-10-03,20:00:00,87.814,87.913,87.57,87.893,15505,0
2017-10-03,21:00:00,87.913,87.993,87.734,87.953,18634,0
2017-10-03,22:00:00,88.013,88.113,87.936,88.103,73004,0
2017-10-04,16:00:00,87.933,88.332,87.933,88.332,13679,0
2017-10-04,17:00:00,88.332,88.521,88.143,88.247,7736,0
2017-10-04,18:00:00,88.302,88.491,88.272,88.362,21477,0
2017-10-04,19:00:00,88.431,88.436,88.113,88.217,21998,0
2017-10-04,20:00:00,88.202,88.312,88.113,88.172,12684,0
2017-10-04,21:00:00,88.182,88.182,87.694,87.714,24111,0
2017-10-04,22:00:00,87.714,87.884,87.595,87.814,89133,0
2017-10-05,16:00:00,88.182,88.402,87.296,87.445,7860,0
2017-10-05,17:00:00,87.425,87.684,87.296,87.565,8643,0
2017-10-05,18:00:00,87.575,87.784,87.425,87.784,10070,0
2017-10-05,19:00:00,87.784,87.784,87.346,87.355,18245,0
2017-10-05,20:00:00,87.326,87.615,87.296,87.585,17238,0
2017-10-05,21:00:00,87.585,87.704,87.55,87.704,16353,0
2017-10-05,22:00:00,87.744,87.844,87.624,87.814,68806,0
2017-10-06,16:00:00,87.714,87.943,87.576,87.943,7562,0
2017-10-06,17:00:00,88.003,88.252,88.003,88.113,8876,0
2017-10-06,18:00:00,88.053,88.143,88.043,88.048,9947,0
2017-10-06,19:00:00,88.073,88.212,88.025,88.123,9740,0
2017-10-06,20:00:00,88.153,88.202,87.988,88.182,10801,0
2017-10-06,21:00:00,88.153,88.282,88.153,88.282,10626,0
2017-10-06,22:00:00,88.272,88.302,88.073,88.252,69507,0
2017-10-09,16:00:00,88.352,88.461,88.013,88.172,9667,0
2017-10-09,17:00:00,88.172,88.272,88.083,88.252,12277,0
2017-10-09,18:00:00,88.252,88.332,88.123,88.192,13902,0
2017-10-09,19:00:00,88.212,88.252,88.158,88.162,3892,0
2017-10-09,20:00:00,88.192,88.252,88.093,88.172,5481,0
2017-10-09,21:00:00,88.133,88.272,88.078,88.197,21673,0
2017-10-09,22:00:00,88.192,88.192,88.003,88.133,45701,0
2017-10-10,16:00:00,88.272,88.412,88.033,88.262,8801,0
2017-10-10,17:00:00,88.192,88.541,88.143,88.252,23658,0
2017-10-10,18:00:00,88.272,88.402,88.252,88.282,12895,0
2017-10-10,19:00:00,88.297,88.352,88.172,88.182,14949,0
2017-10-10,20:00:00,88.172,88.272,87.993,88.033,12910,0
2017-10-10,21:00:00,88.008,88.033,87.893,87.993,16365,0
2017-10-10,22:00:00,87.993,88.342,87.973,88.143,64876,0
2017-10-11,16:00:00,88.153,88.471,88.093,88.282,6173,0
2017-10-11,17:00:00,88.192,88.242,87.893,87.893,7817,0
2017-10-11,18:00:00,87.874,88.153,87.864,88.088,9602,0
2017-10-11,19:00:00,88.063,88.172,88.053,88.098,5288,0
2017-10-11,20:00:00,88.073,88.098,87.923,87.978,10688,0
2017-10-11,21:00:00,87.993,88.332,87.933,88.023,30669,0
2017-10-11,22:00:00,88.018,88.118,87.933,88.033,58626,0
2017-10-12,16:00:00,88.172,88.332,87.893,87.893,3654,0
2017-10-12,17:00:00,87.923,88.382,87.923,88.352,12207,0
2017-10-12,18:00:00,88.352,88.352,88.153,88.232,9552,0
2017-10-12,19:00:00,88.202,88.262,88.133,88.182,10983,0
2017-10-12,20:00:00,88.162,88.302,88.143,88.292,11253,0
2017-10-12,21:00:00,88.302,88.352,88.172,88.232,17722,0
2017-10-12,22:00:00,88.242,88.252,88.083,88.162,66067,0
2017-10-13,16:00:00,88.362,88.785,88.362,88.76,4642,0
2017-10-13,17:00:00,88.76,89.039,88.72,88.979,34416,0
2017-10-13,18:00:00,88.979,88.989,88.76,88.84,10913,0
2017-10-13,19:00:00,88.81,88.93,88.671,88.671,8178,0
2017-10-13,20:00:00,88.681,88.86,88.621,88.85,8102,0
2017-10-13,21:00:00,88.85,88.969,88.76,88.78,13354,0
2017-10-13,22:00:00,88.77,88.8,88.461,88.511,81764,0
2017-10-16,16:00:00,88.591,88.591,88.013,88.113,20325,0
2017-10-16,17:00:00,88.153,88.252,87.644,87.729,16656,0
2017-10-16,18:00:00,87.714,87.912,87.654,87.874,16416,0
2017-10-16,19:00:00,87.923,88.063,87.794,88.023,10690,0
2017-10-16,20:00:00,87.993,88.232,87.983,88.018,16212,0
2017-10-16,21:00:00,87.963,88.232,87.963,88.093,17052,0
2017-10-16,22:00:00,88.123,88.611,88.123,88.611,92427,0
2017-10-17,16:00:00,88.969,88.969,88.382,88.671,8409,0
2017-10-17,17:00:00,88.671,88.73,88.531,88.541,8564,0
2017-10-17,18:00:00,88.541,88.86,88.531,88.83,9262,0
2017-10-17,19:00:00,88.81,88.81,88.681,88.696,15575,0
2017-10-17,20:00:00,88.7,88.72,88.591,88.681,7898,0
2017-10-17,21:00:00,88.676,88.74,88.571,88.611,10336,0
2017-10-17,22:00:00,88.616,88.651,88.501,88.651,78453,0
2017-10-18,16:00:00,88.402,89.039,88.402,88.412,11668,0
2017-10-18,17:00:00,88.531,88.531,87.993,88.247,27526,0
2017-10-18,18:00:00,88.252,88.292,88.133,88.162,18407,0
2017-10-18,19:00:00,88.212,88.45,88.182,88.392,12194,0
2017-10-18,20:00:00,88.372,88.521,88.342,88.362,13042,0
2017-10-18,21:00:00,88.362,88.531,88.222,88.222,20368,0
2017-10-18,22:00:00,88.222,88.342,88.192,88.272,64532,0
2017-10-19,16:00:00,88.182,88.471,88.182,88.382,6075,0
2017-10-19,17:00:00,88.372,88.471,88.302,88.422,16697,0
2017-10-19,18:00:00,88.501,88.501,88.023,88.182,7912,0
2017-10-19,19:00:00,88.252,88.312,88.172,88.172,5617,0
2017-10-19,20:00:00,88.242,88.372,88.192,88.312,7172,0
2017-10-19,21:00:00,88.342,88.402,88.083,88.133,11480,0
2017-10-19,22:00:00,88.153,88.402,88.093,88.312,58968,0
2017-10-20,16:00:00,88.9,88.9,88.372,88.691,8468,0
2017-10-20,17:00:00,88.72,88.96,88.651,88.96,4899,0
2017-10-20,18:00:00,88.95,88.979,88.75,88.84,8547,0
2017-10-20,19:00:00,88.84,88.91,88.81,88.82,11108,0
2017-10-20,20:00:00,88.83,88.87,88.74,88.78,10742,0
2017-10-20,21:00:00,88.78,88.82,88.681,88.73,15096,0
2017-10-20,22:00:00,88.7,88.87,88.641,88.87,39073,0
2017-10-23,16:00:00,88.83,89.149,88.83,89.149,5938,0
2017-10-23,17:00:00,89.149,89.343,89.039,89.209,6165,0
2017-10-23,18:00:00,89.139,89.229,89.069,89.119,4368,0
2017-10-23,19:00:00,89.059,89.099,88.641,88.81,18285,0
2017-10-23,20:00:00,88.78,88.84,88.671,88.671,7569,0
2017-10-23,21:00:00,88.671,88.82,88.591,88.78,22913,0
2017-10-23,22:00:00,88.8,88.86,88.641,88.7,40803,0
2017-10-24,16:00:00,88.73,89.301,88.73,88.95,4614,0
2017-10-24,17:00:00,88.8,88.8,88.501,88.691,14370,0
2017-10-24,18:00:00,88.686,88.84,88.561,88.591,11747,0
2017-10-24,19:00:00,88.511,88.88,88.511,88.829,14955,0
2017-10-24,20:00:00,88.84,88.9,88.71,88.85,11160,0
2017-10-24,21:00:00,88.89,89.069,88.84,88.905,10481,0
2017-10-24,22:00:00,88.92,88.989,88.71,88.79,88554,0
2017-10-25,16:00:00,88.74,89.139,88.511,88.706,3521,0
2017-10-25,17:00:00,88.78,88.82,87.754,87.779,43644,0
2017-10-25,18:00:00,87.889,88.033,87.724,87.804,32825,0
2017-10-25,19:00:00,87.754,87.754,87.365,87.545,13581,0
2017-10-25,20:00:00,87.585,87.913,87.445,87.864,12866,0
2017-10-25,21:00:00,87.854,87.993,87.759,87.859,9910,0
2017-10-25,22:00:00,87.903,88.292,87.884,88.162,46040,0
2017-10-26,16:00:00,88.481,88.681,88.272,88.511,10842,0
2017-10-26,17:00:00,88.576,88.78,88.372,88.471,21115,0
2017-10-26,18:00:00,88.501,88.661,88.362,88.561,17226,0
2017-10-26,19:00:00,88.571,88.89,88.461,88.461,22296,0
2017-10-26,20:00:00,88.501,88.79,88.282,88.77,21105,0
2017-10-26,21:00:00,88.78,88.91,88.611,88.643,17408,0
2017-10-26,22:00:00,88.611,88.72,88.451,88.611,85033,0
2017-10-27,16:00:00,89.069,89.069,86.469,86.608,38800,0
2017-10-27,17:00:00,86.678,86.768,86.22,86.344,45975,0
2017-10-27,18:00:00,86.344,86.389,85.572,86.01,50259,0
2017-10-27,19:00:00,85.981,86.638,85.941,86.534,49024,0
2017-10-27,20:00:00,86.529,87.525,86.519,86.942,65163,0
2017-10-27,21:00:00,87.012,87.306,86.887,87.256,39045,0
2017-10-27,22:00:00,87.276,87.724,87.276,87.605,165583,0
2017-10-30,15:00:00,87.136,87.266,86.598,86.927,22202,0
2017-10-30,16:00:00,86.798,86.897,86.07,86.25,32144,0
2017-10-30,17:00:00,86.19,86.27,85.931,86.27,24635,0
2017-10-30,18:00:00,86.24,86.339,86.19,86.309,10607,0
2017-10-30,19:00:00,86.369,86.489,86.21,86.22,14037,0
2017-10-30,20:00:00,86.22,86.25,86.09,86.145,17132,0
2017-10-30,21:00:00,86.13,86.21,85.961,86.14,89866,0
2017-10-31,15:00:00,86.25,86.57,86.12,86.535,13525,0
2017-10-31,16:00:00,86.58,87.14,86.44,87.01,97439,0
2017-10-31,17:00:00,87.01,87.25,86.97,87.19,26330,0
2017-10-31,18:00:00,87.25,87.3,87.11,87.15,18287,0
2017-10-31,19:00:00,87.17,87.24,87.07,87.095,17420,0
2017-10-31,20:00:00,87.1,87.16,86.99,87.11,25575,0
2017-10-31,21:00:00,87.17,87.27,87.06,87.07,214601,0
2017-11-01,15:00:00,87.83,88.07,87.37,87.9,37271,0
2017-11-01,16:00:00,88.12,88.12,87.49,87.68,45718,0
2017-11-01,17:00:00,87.69,87.75,87.46,87.75,12956,0
2017-11-01,18:00:00,87.74,87.74,87.21,87.3,19264,0
2017-11-01,19:00:00,87.3,87.47,87.21,87.43,17565,0
2017-11-01,20:00:00,87.45,87.7,87.43,87.58,31128,0
2017-11-01,21:00:00,87.57,87.59,87.26,87.41,58910,0
2017-11-02,15:00:00,87.09,87.37,86.73,86.92,29520,0
2017-11-02,16:00:00,86.81,87.02,86.34,86.77,17288,0
2017-11-02,17:00:00,86.71,86.83,86.46,86.67,13173,0
2017-11-02,18:00:00,86.67,86.78,86.6,86.74,14479,0
2017-11-02,19:00:00,86.741,86.83,86.69,86.69,13989,0
2017-11-02,20:00:00,86.68,86.82,86.37,86.38,18352,0
2017-11-02,21:00:00,86.4,86.75,86.32,86.6,87513,0
2017-11-03,15:00:00,86.6,86.85,86.6,86.76,5579,0
2017-11-03,16:00:00,86.69,87.04,86.64,86.83,26461,0
2017-11-03,17:00:00,86.83,87.18,86.81,87,14934,0
2017-11-03,18:00:00,87,87.04,86.81,86.89,18430,0
2017-11-03,19:00:00,86.9,86.9,86.76,86.89,17764,0
2017-11-03,20:00:00,86.905,86.94,86.8,86.94,17309,0
2017-11-03,21:00:00,86.95,87,86.89,86.94,68977,0
2017-11-06,16:00:00,87.02,87.08,86.235,86.34,10727,0
2017-11-06,17:00:00,86.46,86.59,86.11,86.11,18149,0
2017-11-06,18:00:00,86.14,86.3,85.96,86.02,19259,0
2017-11-06,19:00:00,86.12,86.19,85.9,85.97,16985,0
2017-11-06,20:00:00,85.97,86.16,85.73,85.88,23165,0
2017-11-06,21:00:00,85.74,85.98,85.68,85.85,18842,0
2017-11-06,22:00:00,85.84,86.16,85.74,85.85,96483,0
2017-11-07,16:00:00,85.85,86.11,85.73,86,14024,0
2017-11-07,17:00:00,86,86.02,85.56,85.675,21467,0
2017-11-07,18:00:00,85.685,85.89,85.68,85.79,73774,0
2017-11-07,19:00:00,85.77,85.865,85.73,85.809,68161,0
2017-11-07,20:00:00,85.8,85.91,85.63,85.695,32589,0
2017-11-07,21:00:00,85.67,85.695,85.385,85.62,28817,0
2017-11-07,22:00:00,85.62,85.73,85.48,85.72,100140,0
2017-11-08,16:00:00,85.68,86.44,85.68,86.31,14578,0
2017-11-08,17:00:00,86.38,86.6,85.83,86.11,30123,0
2017-11-08,18:00:00,85.94,86.05,85.74,86.01,17877,0
2017-11-08,19:00:00,86.01,86.01,85.74,85.795,12038,0
2017-11-08,20:00:00,85.81,85.92,85.725,85.82,13347,0
2017-11-08,21:00:00,85.81,85.9,85.77,85.8,16598,0
2017-11-08,22:00:00,85.83,85.89,85.64,85.73,87433,0
2017-11-09,16:00:00,85.2,85.42,84.89,85.05,4433,0
2017-11-09,17:00:00,84.99,85.25,84.96,85.23,5064,0
2017-11-09,18:00:00,85.23,85.4,84.9,84.98,16856,0
2017-11-09,19:00:00,84.88,84.88,84.54,84.61,7655,0
2017-11-09,20:00:00,84.54,84.83,84.43,84.51,5736,0
2017-11-09,21:00:00,84.46,84.48,84.32,84.445,9913,0
2017-11-09,22:00:00,84.435,84.885,84.35,84.76,68248,0
2017-11-10,16:00:00,84.35,85.11,84.22,84.97,9480,0
2017-11-10,17:00:00,84.98,85.11,84.755,84.88,14081,0
2017-11-10,18:00:00,84.91,84.96,84.61,84.82,18065,0
2017-11-10,19:00:00,84.82,85.01,84.75,84.81,11295,0
2017-11-10,20:00:00,84.81,84.88,84.56,84.57,8156,0
2017-11-10,21:00:00,84.57,84.93,84.57,84.89,13830,0
2017-11-10,22:00:00,84.89,85.09,84.86,84.91,72603,0
2017-11-13,16:00:00,84.62,85.27,84.62,85.16,5673,0
2017-11-13,17:00:00,85.24,85.48,84.98,85.0071,14157,0
2017-11-13,18:00:00,84.96,85.35,84.96,85.25,9981,0
2017-11-13,19:00:00,85.285,85.55,85.28,85.51,18312,0
2017-11-13,20:00:00,85.5,85.71,85.395,85.71,9342,0
2017-11-13,21:00:00,85.71,85.76,85.56,85.63,11353,0
2017-11-13,22:00:00,85.6,85.67,85.48,85.59,50571,0
2017-11-14,16:00:00,85.38,85.57,85.24,85.25,4756,0
2017-11-14,17:00:00,85.26,85.47,85.16,85.41,10243,0
2017-11-14,18:00:00,85.425,85.71,85.31,85.6,21495,0
2017-11-14,19:00:00,85.6,85.81,85.58,85.68,12926,0
2017-11-14,20:00:00,85.68,85.86,85.67,85.75,8026,0
2017-11-14,21:00:00,85.73,85.89,85.64,85.845,7375,0
2017-11-14,22:00:00,85.86,85.86,85.52,85.61,62964,0
2017-11-15,16:00:00,85.54,85.89,85.075,85.58,13222,0
2017-11-15,17:00:00,85.54,85.98,85.5,85.98,13732,0
2017-11-15,18:00:00,85.96,85.96,85.615,85.83,11136,0
2017-11-15,19:00:00,85.79,85.85,85.58,85.675,15552,0
2017-11-15,20:00:00,85.675,85.6899,85.55,85.55,10512,0
2017-11-15,21:00:00,85.54,85.55,85.48,85.52,10620,0
2017-11-15,22:00:00,85.54,85.66,85.46,85.48,60706,0
2017-11-16,16:00:00,85.74,86.02,85.6,85.74,11567,0
2017-11-16,17:00:00,85.79,86.19,85.69,85.875,34766,0
2017-11-16,18:00:00,85.88,86.03,85.7,85.97,25493,0
2017-11-16,19:00:00,85.98,86.32,85.98,86.28,16617,0
2017-11-16,20:00:00,86.29,86.5,86.28,86.39,20603,0
2017-11-16,21:00:00,86.41,86.45,86.18,86.18,21193,0
2017-11-16,22:00:00,86.18,86.285,86.06,86.11,71623,0
2017-11-17,16:00:00,86.03,86.24,85.48,85.88,7119,0
2017-11-17,17:00:00,85.76,86.135,85.76,85.985,15832,0
2017-11-17,18:00:00,85.88,86.19,85.85,85.9825,18421,0
2017-11-17,19:00:00,85.9601,86.15,85.94,86.02,16089,0
2017-11-17,20:00:00,86.01,86.03,85.81,85.82,11760,0
2017-11-17,21:00:00,85.82,85.83,85.64,85.72,14933,0
2017-11-17,22:00:00,85.72,85.85,85.64,85.65,45543,0
2017-11-20,16:00:00,85.61,86.14,85.61,86.02,6918,0
2017-11-20,17:00:00,86.07,86.43,85.92,86.24,19901,0
2017-11-20,18:00:00,86.31,86.405,85.57,85.65,26793,0
2017-11-20,19:00:00,85.67,85.69,85.43,85.47,17322,0
2017-11-20,20:00:00,85.51,85.51,85.34,85.44,14283,0
2017-11-20,21:00:00,85.48,85.61,85.47,85.5,17416,0
2017-11-20,22:00:00,85.5,85.54,85.32,85.47,66310,0
2017-11-21,16:00:00,85.92,86.22,85.34,85.34,12695,0
2017-11-21,17:00:00,85.32,86.2,85.32,86.17,14107,0
2017-11-21,18:00:00,86.17,86.27,86.04,86.23,12797,0
2017-11-21,19:00:00,86.25,86.46,86.21,86.41,18690,0
2017-11-21,20:00:00,86.385,86.63,86.37,86.41,37769,0
2017-11-21,21:00:00,86.38,86.59,86.38,86.59,14588,0
2017-11-21,22:00:00,86.6,86.82,86.5,86.54,85992,0
2017-11-22,16:00:00,86.61,86.62,86.04,86.13,8479,0
2017-11-22,17:00:00,86.18,86.215,85.86,86.07,15356,0
2017-11-22,18:00:00,86.11,86.19,85.85,85.9,7471,0
2017-11-22,19:00:00,85.98,85.99,85.82,85.82,4953,0
2017-11-22,20:00:00,85.8,86.04,85.79,85.99,11524,0
2017-11-22,21:00:00,86.03,86.08,85.87,85.87,10543,0
2017-11-22,22:00:00,85.86,86.1,85.85,85.85,45874,0
2017-11-24,16:00:00,85.49,86.02,85.1,85.58,21907,0
2017-11-24,17:00:00,85.56,86.09,85.49,85.97,15411,0
2017-11-24,18:00:00,85.96,86.07,85.91,85.9966,12214,0
2017-11-24,19:00:00,86.03,86.34,86.02,86.23,26286,0
2017-11-24,20:00:00,86.25,86.25,86.25,86.25,11007,0
2017-11-27,16:00:00,86.37,86.81,86.37,86.71,10222,0
2017-11-27,17:00:00,86.75,86.75,86.52,86.62,35374,0
2017-11-27,18:00:00,86.6,86.73,86.5,86.73,31531,0
2017-11-27,19:00:00,86.68,86.93,86.68,86.805,15036,0
2017-11-27,20:00:00,86.82,86.94,86.77,86.94,18074,0
2017-11-27,21:00:00,86.94,87,86.7,86.85,23445,0
2017-11-27,22:00:00,86.855,86.91,86.73,86.74,112452,0
2017-11-28,16:00:00,87.28,87.4699,86.945,87.12,12980,0
2017-11-28,17:00:00,87.05,87.16,86.9,86.99,14379,0
2017-11-28,18:00:00,86.96,86.97,86.78,86.9,11720,0
2017-11-28,19:00:00,86.9,86.9,86.43,86.62,14431,0
2017-11-28,20:00:00,86.65,86.76,86.49,86.51,13779,0
2017-11-28,21:00:00,86.54,87,86.46,86.99,17280,0
2017-11-28,22:00:00,86.93,87.03,86.85,86.91,78677,0
2017-11-29,16:00:00,87.11,87.72,87.08,87.72,9173,0
2017-11-29,17:00:00,87.69,87.74,87.25,87.35,18160,0
2017-11-29,18:00:00,87.325,87.62,87.325,87.6,15547,0
2017-11-29,19:00:00,87.58,87.6499,87.27,87.44,14912,0
2017-11-29,20:00:00,87.41,87.425,87.2,87.25,14569,0
2017-11-29,21:00:00,87.26,87.35,87.25,87.29,18271,0
2017-11-29,22:00:00,87.27,87.65,87.26,87.56,67930,0
2017-11-30,16:00:00,87.61,87.73,87.08,87.67,19705,0
2017-11-30,17:00:00,87.6,87.86,87.57,87.75,17690,0
2017-11-30,18:00:00,87.75,88.16,87.75,88.16,18901,0
2017-11-30,19:00:00,88.2,88.9,88.2,88.72,13599,0
2017-11-30,20:00:00,88.72,88.81,88.28,88.41,18535,0
2017-11-30,21:00:00,88.41,88.44,88.24,88.32,21688,0
2017-11-30,22:00:00,88.3,88.57,88.23,88.41,75686,0
2017-12-01,16:00:00,88.33,88.99,88.33,88.72,10302,0
2017-12-01,17:00:00,88.39,88.705,87.91,87.91,25716,0
2017-12-01,18:00:00,87.9,87.945,86.44,86.86,27770,0
2017-12-01,19:00:00,86.94,87.31,86.92,87.28,16246,0
2017-12-01,20:00:00,87.275,87.74,87.275,87.62,12400,0
2017-12-01,21:00:00,87.64,87.74,87.42,87.45,21407,0
2017-12-01,22:00:00,87.43,87.84,87.425,87.6,81407,0
2017-12-04,16:00:00,87.79,88.41,87.32,88.29,28796,0
2017-12-04,17:00:00,88.315,88.66,87.86,88.66,31794,0
2017-12-04,18:00:00,88.66,88.6999,88.02,88.38,25377,0
2017-12-04,19:00:00,88.42,88.49,88.25,88.35,12566,0
2017-12-04,20:00:00,88.36,88.36,88.0829,88.2,13231,0
2017-12-04,21:00:00,88.205,88.23,87.91,88.15,19280,0
2017-12-04,22:00:00,88.15,88.21,87.98,88.06,100883,0
2017-12-05,16:00:00,88.33,88.42,88.03,88.14,14281,0
2017-12-05,17:00:00,88.11,88.32,87.89,88.11,17003,0
2017-12-05,18:00:00,88.19,88.85,88.17,88.69,16386,0
2017-12-05,19:00:00,88.64,88.78,88.57,88.78,8871,0
2017-12-05,20:00:00,88.79,89.16,88.79,89.03,17486,0
2017-12-05,21:00:00,89.01,89.13,88.9,88.99,19481,0
2017-12-05,22:00:00,88.985,89.16,88.93,89,110569,0
2017-12-06,16:00:00,88.94,88.94,88.12,88.77,6451,0
2017-12-06,17:00:00,88.7,88.74,88.36,88.5,26170,0
2017-12-06,18:00:00,88.5,88.54,88.33,88.33,10722,0
2017-12-06,19:00:00,88.3709,88.385,88.12,88.18,20349,0
2017-12-06,20:00:00,88.19,88.54,88.125,88.37,10910,0
2017-12-06,21:00:00,88.41,88.5,88.24,88.36,14863,0
2017-12-06,22:00:00,88.36,88.42,88.135,88.17,117252,0
